05/05/2022	11:24

Co88Tb12_20210526_CVEJ5

Field	Kepco	Channel A	Channel B	Agilent	0	RF out	Monitor+	Monitor-	Time
5980.04	4	-1.102384	-0.179283	-0.001281	0	-0.001392	-0.212787	0.072306	1.726806E+9
5679.98	3.75	-1.105948	-0.180947	-0.0012	0	-0.000906	-0.212787	0.071906	1.726807E+9
5367.05	3.5	-1.108193	-0.184878	-0.001092	0	-0.001336	-0.212787	0.072519	1.726808E+9
5042.1	3.25	-1.10945	-0.182402	-0.000919	0	-0.001387	-0.212787	0.072162	1.726809E+9
4705.98	3	-1.108031	-0.18209	-0.001542	0	-0.000794	-0.212787	0.072312	1.72681E+9
4359.54	2.75	-1.109941	-0.180625	-0.000796	0	-0.001566	-0.212787	0.072147	1.726811E+9
4003.65	2.5	-1.105149	-0.183305	-0.001477	0	-0.001073	-0.212787	0.072289	1.726812E+9
3639.15	2.25	-1.098541	-0.189322	-0.001434	0	-0.001113	-0.212787	0.072212	1.726813E+9
3266.89	2	-1.096322	-0.179719	-0.001192	0	-0.00136	-0.212787	0.071925	1.726814E+9
3116	1.9	-1.094408	-0.181129	-0.000906	0	-0.001269	-0.212787	0.071815	1.726815E+9
2964.07	1.8	-1.090971	-0.180619	-0.001971	0	-0.000793	-0.212787	0.072348	1.726816E+9
2811.14	1.7	-1.090633	-0.180641	-0.001725	0	-0.000775	-0.212787	0.072293	1.726817E+9
2657.27	1.6	-1.087372	-0.179322	-0.001311	0	-0.000982	-0.212787	0.071895	1.726818E+9
2502.52	1.5	-1.084548	-0.178192	-0.000643	0	-0.000828	-0.212787	0.071801	1.726819E+9
2346.93	1.4	-1.081878	-0.177704	-0.001592	0	-0.000936	-0.212787	0.07231	1.72682E+9
2190.57	1.3	-1.077317	-0.177558	-0.002015	0	-0.001437	-0.212787	0.072184	1.726821E+9
2033.48	1.2	-1.071141	-0.180765	-0.001091	0	-0.001418	-0.212787	0.071851	1.726822E+9
1875.73	1.1	-1.073772	-0.176171	-0.002112	0	-0.000865	-0.212787	0.072213	1.726823E+9
1717.37	1	-1.066427	-0.178439	-0.0021	0	-0.001898	-0.212787	0.072197	1.726824E+9
1558.44	0.9	-1.058272	-0.177496	-0.001893	0	-0.00107	-0.212787	0.071866	1.726825E+9
1399.02	0.8	-1.055761	-0.1744	-0.001224	0	-0.000902	-0.212787	0.072134	1.726826E+9
1239.14	0.7	-1.049429	-0.173523	-0.001882	0	-0.000644	-0.212787	0.072145	1.726827E+9
1078.87	0.6	-1.038789	-0.173907	-0.001368	0	-0.000945	-0.212787	0.071939	1.726828E+9
918.26	0.5	-1.030287	-0.172539	-0.000673	0	-0.001509	-0.212787	0.071838	1.726829E+9
757.37	0.4	-1.013721	-0.17174	-0.000786	0	-0.001055	-0.212787	0.071835	1.72683E+9
596.24	0.3	-0.99814	-0.169043	-0.001091	0	-0.000975	-0.212787	0.072098	1.726831E+9
434.94	0.2	-0.967631	-0.157237	-0.000225	0	-0.001366	-0.212787	0.071962	1.726832E+9
273.52	0.1	-0.931787	-0.156824	-0.001487	0	-0.001499	-0.212787	0.072237	1.726833E+9
112.03	0	-0.875599	-0.144537	-0.001617	0	-0.001462	-0.212787	0.072307	1.726834E+9
-49.47	-0.1	-0.780035	-0.130181	-0.001558	0	-0.001695	-0.212787	0.072321	1.726835E+9
-210.93	-0.2	-0.661162	-0.111764	-0.001193	0	-0.000941	-0.212787	0.07224	1.726836E+9
-372.3	-0.3	-0.50274	-0.089938	-0.001459	0	-0.001167	-0.212787	0.072059	1.726837E+9
-533.51	-0.4	-0.30714	-0.052421	-0.001464	0	-0.00096	-0.212787	0.072195	1.726838E+9
-694.51	-0.5	0.045238	0.003728	-0.001756	0	-0.001622	-0.212787	0.072163	1.726839E+9
-855.25	-0.6	0.566807	0.087368	-0.001542	0	-0.001707	-0.212787	0.071945	1.72684E+9
-1015.68	-0.7	1.42606	0.229214	-0.001781	0	-0.001986	-0.212787	0.072206	1.726841E+9
-1175.74	-0.8	3.357034	0.541245	-0.003837	0	-0.003734	-0.212787	0.072258	1.726842E+9
-1335.37	-0.9	7.231202	1.224306	-0.005613	0	-0.005521	-0.212787	0.072347	1.726843E+9
-1494.53	-1	9.947138	1.683225	-0.006774	0	-0.007393	-0.212787	0.071863	1.726844E+9
-1653.15	-1.1	10.597161	1.873095	-0.008772	0	-0.008615	-0.212787	0.072177	1.726845E+9
-1811.18	-1.2	10.597161	2.002225	-0.009487	0	-0.010287	-0.212787	0.072279	1.726846E+9
-1968.57	-1.3	10.597161	2.102064	-0.010597	0	-0.010231	-0.212787	0.07228	1.726847E+9
-2125.26	-1.4	10.597161	2.184672	-0.010568	0	-0.010529	-0.212787	0.072468	1.726848E+9
-2281.19	-1.5	10.597161	2.242988	-0.011377	0	-0.010854	-0.212787	0.072292	1.726849E+9
-2436.33	-1.6	10.597161	2.284176	-0.011686	0	-0.011411	-0.212787	0.072209	1.72685E+9
-2590.6	-1.7	10.597161	2.305735	-0.012057	0	-0.01222	-0.212787	0.071854	1.726851E+9
-2743.95	-1.8	10.597161	2.326105	-0.013364	0	-0.012754	-0.212787	0.071952	1.726852E+9
-2896.33	-1.9	10.597161	2.331683	-0.012017	0	-0.013186	-0.212787	0.072234	1.726853E+9
-3047.69	-2	10.597161	2.314449	-0.013684	0	-0.014468	-0.212787	0.072494	1.726854E+9
-3421.24	-2.25	10.597161	2.016026	-0.014726	0	-0.014455	-0.212787	0.072452	1.726855E+9
-3787.18	-2.5	10.597161	1.80912	-0.014273	0	-0.015156	-0.212787	0.072453	1.726856E+9
-4144.67	-2.75	10.597161	1.733075	-0.014714	0	-0.014061	-0.212787	0.072024	1.726857E+9
-4492.85	-3	10.597161	1.69318	-0.014206	0	-0.014097	-0.212787	0.071975	1.726858E+9
-4830.87	-3.25	10.597161	1.670646	-0.013738	0	-0.014315	-0.212787	0.072194	1.726859E+9
-5157.87	-3.5	10.597161	1.66036	-0.014006	0	-0.014239	-0.212787	0.072324	1.72686E+9
-5473	-3.75	10.597161	1.644548	-0.014534	0	-0.014883	-0.212787	0.072491	1.726861E+9
-5775.41	-4	10.597161	1.641478	-0.015571	0	-0.015113	-0.212787	0.072453	1.726862E+9
-5473	-3.75	10.597161	1.650682	-0.014569	0	-0.013902	-0.212787	0.072406	1.726863E+9
-5157.87	-3.5	10.597161	1.664642	-0.014744	0	-0.014101	-0.212787	0.072169	1.726864E+9
-4830.87	-3.25	10.597161	1.66509	-0.014893	0	-0.014707	-0.212787	0.072464	1.726865E+9
-4492.85	-3	10.597161	1.662072	-0.014344	0	-0.013909	-0.212787	0.072165	1.726866E+9
-4144.67	-2.75	10.597161	1.666877	-0.015177	0	-0.014189	-0.212787	0.072399	1.726867E+9
-3787.18	-2.5	10.597161	1.689642	-0.014439	0	-0.014685	-0.212787	0.071978	1.726868E+9
-3421.24	-2.25	10.597161	1.703079	-0.014714	0	-0.014247	-0.212787	0.072026	1.726869E+9
-3047.69	-2	10.597161	1.690902	-0.014342	0	-0.014212	-0.212787	0.072407	1.72687E+9
-2896.33	-1.9	10.597161	1.700434	-0.014914	0	-0.014117	-0.212787	0.072229	1.726871E+9
-2743.95	-1.8	10.597161	1.716227	-0.014514	0	-0.014176	-0.212787	0.072124	1.726872E+9
-2590.6	-1.7	10.597161	1.708374	-0.014038	0	-0.01476	-0.212787	0.072227	1.726873E+9
-2436.33	-1.6	10.597161	1.710694	-0.014783	0	-0.014151	-0.212787	0.072179	1.726874E+9
-2281.19	-1.5	10.597161	1.708914	-0.014637	0	-0.013888	-0.212787	0.072137	1.726875E+9
-2125.26	-1.4	10.597161	1.714037	-0.014377	0	-0.014053	-0.212787	0.072371	1.726876E+9
-1968.57	-1.3	10.597161	1.720258	-0.014754	0	-0.014508	-0.212787	0.072341	1.726877E+9
-1811.18	-1.2	10.597161	1.718546	-0.014186	0	-0.014292	-0.212787	0.071955	1.726878E+9
-1653.15	-1.1	10.597161	1.723049	-0.014727	0	-0.013705	-0.212787	0.072356	1.726879E+9
-1494.53	-1	10.597161	1.738068	-0.014205	0	-0.014196	-0.212787	0.071847	1.72688E+9
-1335.37	-0.9	10.597161	1.744936	-0.01419	0	-0.013899	-0.212787	0.072339	1.726881E+9
-1175.74	-0.8	10.597161	1.765836	-0.013858	0	-0.014494	-0.212787	0.072119	1.726882E+9
-1015.68	-0.7	10.597161	1.771726	-0.013902	0	-0.01409	-0.212787	0.071905	1.726883E+9
-855.25	-0.6	10.597161	1.799701	-0.014465	0	-0.014517	-0.212787	0.072368	1.726884E+9
-694.51	-0.5	10.597161	1.845334	-0.014005	0	-0.01383	-0.212787	0.072197	1.726885E+9
-533.51	-0.4	10.597161	1.877075	-0.014759	0	-0.014501	-0.212787	0.071972	1.726886E+9
-372.3	-0.3	10.597161	1.951632	-0.014652	0	-0.013549	-0.212787	0.071875	1.726887E+9
-210.93	-0.2	10.597161	2.021319	-0.014161	0	-0.013761	-0.212787	0.072105	1.726888E+9
-49.47	-0.1	10.597161	2.101441	-0.013907	0	-0.013684	-0.212787	0.072135	1.726889E+9
112.03	0	10.597161	2.200286	-0.012782	0	-0.013934	-0.212787	0.071877	1.72689E+9
273.52	0.1	10.597161	2.291223	-0.01277	0	-0.013895	-0.212787	0.071975	1.726891E+9
434.94	0.2	10.597161	2.343324	-0.012438	0	-0.012915	-0.212787	0.07218	1.726892E+9
596.24	0.3	10.597161	2.347577	-0.011552	0	-0.011585	-0.212787	0.071867	1.726893E+9
757.37	0.4	10.597161	2.20294	-0.010564	0	-0.010602	-0.212787	0.072242	1.726894E+9
918.26	0.5	10.597161	1.770972	-0.007696	0	-0.00752	-0.212787	0.071768	1.726895E+9
1078.87	0.6	9.90166	1.505477	-0.006728	0	-0.006416	-0.212787	0.072126	1.726896E+9
1239.14	0.7	8.607598	1.336874	-0.006315	0	-0.005825	-0.212787	0.072203	1.726897E+9
1399.02	0.8	7.523563	1.191996	-0.004892	0	-0.004822	-0.212787	0.072168	1.726898E+9
1558.44	0.9	6.505214	1.041327	-0.004396	0	-0.003624	-0.212787	0.072108	1.726899E+9
1717.37	1	5.592145	0.898584	-0.003597	0	-0.003365	-0.212787	0.072089	1.7269E+9
1875.73	1.1	4.719919	0.757395	-0.003011	0	-0.00335	-0.212787	0.072134	1.726901E+9
2033.48	1.2	3.876295	0.623515	-0.002336	0	-0.002515	-0.212787	0.071701	1.726902E+9
2190.57	1.3	3.015324	0.480694	-0.001913	0	-0.002572	-0.212787	0.072146	1.726903E+9
2346.93	1.4	2.1043	0.333793	-0.001601	0	-0.002198	-0.212787	0.071611	1.726904E+9
2502.52	1.5	1.159846	0.180053	-0.000999	0	-0.001049	-0.212787	0.072116	1.726905E+9
2657.27	1.6	0.252482	0.038133	-0.000369	0	-4.8E-5	-0.212787	0.072209	1.726906E+9
2811.14	1.7	-0.430536	-0.076917	-0	0	0.00021	-0.212787	0.072022	1.726907E+9
2964.07	1.8	-0.809992	-0.138196	0.00014	0	6.7E-5	-0.212787	0.071653	1.726908E+9
3116	1.9	-0.965876	-0.168393	0.000572	0	-0.000458	-0.212787	0.07178	1.726909E+9
3266.89	2	-1.022305	-0.172776	-0.000467	0	-0.000428	-0.212787	0.071659	1.72691E+9
3639.15	2.25	-1.061784	-0.178153	-0.000386	0	0.00018	-0.212787	0.072159	1.726911E+9
4003.65	2.5	-1.085435	-0.182032	-5.7E-5	0	0.000407	-0.212787	0.071646	1.726912E+9
4359.54	2.75	-1.096575	-0.184111	0.000332	0	0.000106	-0.212787	0.07162	1.726913E+9
4705.98	3	-1.104288	-0.188279	-0.000283	0	0.000199	-0.212787	0.071816	1.726914E+9
5042.1	3.25	-1.110916	-0.189494	-0.000685	0	0.000503	-0.212787	0.072055	1.726915E+9
5367.05	3.5	-1.12021	-0.188614	8.9E-5	0	0.000569	-0.212787	0.071668	1.726916E+9
5679.98	3.75	-1.122156	-0.190612	5.2E-5	0	0.000594	-0.212787	0.072043	1.726917E+9
5980.04	4	-1.120867	-0.189004	-0.000263	0	-0.000304	-0.212787	0.072119	1.726918E+9
