05/05/2022	11:28

Co88Tb12_20210526_CVEJ5

Field	Kepco	Channel A	Channel B	Agilent	0	RF out	Monitor+	Monitor-	Time
5980.04	4	-1.133599	-0.18916	0.00205	0	0.001756	-0.212787	0.07148	1.727032E+9
5679.98	3.75	-1.137403	-0.192717	0.002541	0	0.00199	-0.212787	0.071153	1.727033E+9
5367.05	3.5	-1.142988	-0.190573	0.001825	0	0.00118	-0.212787	0.071592	1.727034E+9
5042.1	3.25	-1.138625	-0.19748	0.001905	0	0.001558	-0.212787	0.071469	1.727035E+9
4705.98	3	-1.139125	-0.195427	0.001435	0	0.002123	-0.212787	0.071358	1.727036E+9
4359.54	2.75	-1.138725	-0.196755	0.001985	0	0.002071	-0.212787	0.071413	1.727037E+9
4003.65	2.5	-1.13599	-0.190125	0.001926	0	0.001495	-0.212787	0.071421	1.727038E+9
3639.15	2.25	-1.129447	-0.198006	0.001689	0	0.001878	-0.212787	0.07125	1.727039E+9
3266.89	2	-1.122264	-0.194806	0.001773	0	0.002188	-0.212787	0.071469	1.72704E+9
3116	1.9	-1.123641	-0.193783	0.001933	0	0.002121	-0.212787	0.071414	1.727041E+9
2964.07	1.8	-1.115682	-0.188299	0.001668	0	0.002193	-0.212787	0.071394	1.727042E+9
2811.14	1.7	-1.116958	-0.192327	0.001834	0	0.001802	-0.212787	0.071477	1.727043E+9
2657.27	1.6	-1.116387	-0.193981	0.002345	0	0.002428	-0.212787	0.071023	1.727044E+9
2502.52	1.5	-1.114473	-0.190914	0.002038	0	0.002062	-0.212787	0.071152	1.727045E+9
2346.93	1.4	-1.109265	-0.190904	0.002474	0	0.001306	-0.212787	0.071011	1.727046E+9
2190.57	1.3	-1.103245	-0.188728	0.001798	0	0.001685	-0.212787	0.07123	1.727047E+9
2033.48	1.2	-1.099646	-0.188929	0.001996	0	0.002367	-0.212787	0.071451	1.727048E+9
1875.73	1.1	-1.097466	-0.19004	0.002733	0	0.002128	-0.212787	0.071017	1.727049E+9
1717.37	1	-1.091761	-0.188094	0.002112	0	0.001454	-0.212787	0.071401	1.72705E+9
1558.44	0.9	-1.08858	-0.185921	0.002255	0	0.001525	-0.212787	0.071527	1.727051E+9
1399.02	0.8	-1.077459	-0.187662	0.001788	0	0.001599	-0.212787	0.071239	1.727052E+9
1239.14	0.7	-1.072885	-0.18901	0.001892	0	0.002461	-0.212787	0.071314	1.727053E+9
1078.87	0.6	-1.068636	-0.187672	0.001675	0	0.001599	-0.212787	0.07135	1.727054E+9
918.26	0.5	-1.058301	-0.188078	0.001844	0	0.00199	-0.212787	0.071347	1.727055E+9
757.37	0.4	-1.041307	-0.183331	0.001957	0	0.002023	-0.212787	0.070997	1.727056E+9
596.24	0.3	-1.021525	-0.178133	0.001511	0	0.002372	-0.212787	0.071417	1.727057E+9
434.94	0.2	-1.002188	-0.17376	0.001113	0	0.001823	-0.212787	0.071451	1.727058E+9
273.52	0.1	-0.957065	-0.167432	0.001338	0	0.001322	-0.212787	0.071394	1.727059E+9
112.03	0	-0.903626	-0.155648	0.002441	0	0.002281	-0.212787	0.071334	1.72706E+9
-49.47	-0.1	-0.816734	-0.14087	0.001566	0	0.002204	-0.212787	0.071308	1.727061E+9
-210.93	-0.2	-0.694439	-0.125292	0.001104	0	0.001442	-0.212787	0.071236	1.727062E+9
-372.3	-0.3	-0.5385	-0.09087	0.001337	0	0.001468	-0.212787	0.071451	1.727063E+9
-533.51	-0.4	-0.341866	-0.063727	0.001894	0	0.001606	-0.212787	0.071399	1.727064E+9
-694.51	-0.5	0.006402	-0.012581	0.001882	0	0.00163	-0.212787	0.071412	1.727065E+9
-855.25	-0.6	0.525196	0.082966	0.000752	0	0.001744	-0.212787	0.071293	1.727066E+9
-1015.68	-0.7	1.38314	0.220504	0.000992	0	0.000788	-0.212787	0.071198	1.727067E+9
-1175.74	-0.8	3.284095	0.536703	-0.000114	0	-6E-6	-0.212787	0.071081	1.727068E+9
-1335.37	-0.9	7.10551	1.203621	-0.0025	0	-0.002291	-0.212787	0.071439	1.727069E+9
-1494.53	-1	9.3579	1.626816	-0.004694	0	-0.004421	-0.212787	0.07137	1.727071E+9
-1653.15	-1.1	10.597161	1.899765	-0.005588	0	-0.005246	-0.212787	0.07107	1.727071E+9
-1811.18	-1.2	10.597161	2.019321	-0.00641	0	-0.005876	-0.212787	0.071467	1.727072E+9
-1968.57	-1.3	10.597161	2.123091	-0.006643	0	-0.006747	-0.212787	0.071067	1.727073E+9
-2125.26	-1.4	10.597161	2.210639	-0.007412	0	-0.007268	-0.212787	0.071109	1.727074E+9
-2281.19	-1.5	10.597161	2.272081	-0.008402	0	-0.008608	-0.212787	0.071115	1.727075E+9
-2436.33	-1.6	10.597161	2.313682	-0.008921	0	-0.008664	-0.212787	0.071557	1.727076E+9
-2590.6	-1.7	10.597161	2.340826	-0.008301	0	-0.009151	-0.212787	0.071161	1.727077E+9
-2743.95	-1.8	10.597161	2.361728	-0.008694	0	-0.009206	-0.212787	0.071213	1.727078E+9
-2896.33	-1.9	10.597161	2.372488	-0.010795	0	-0.00991	-0.212787	0.071542	1.727079E+9
-3047.69	-2	10.597161	2.365019	-0.009892	0	-0.010923	-0.212787	0.071294	1.72708E+9
-3421.24	-2.25	10.597161	2.210276	-0.010763	0	-0.011248	-0.212787	0.071075	1.727081E+9
-3787.18	-2.5	10.597161	2.054352	-0.012386	0	-0.011481	-0.212787	0.071218	1.727082E+9
-4144.67	-2.75	10.597161	1.986144	-0.01181	0	-0.011052	-0.212787	0.071424	1.727083E+9
-4492.85	-3	10.597161	1.961709	-0.01108	0	-0.01121	-0.212787	0.071678	1.727084E+9
-4830.87	-3.25	10.597161	1.940238	-0.011914	0	-0.0118	-0.212787	0.071115	1.727085E+9
-5157.87	-3.5	10.597161	1.924696	-0.010638	0	-0.010721	-0.212787	0.071344	1.727086E+9
-5473	-3.75	10.597161	1.934611	-0.01124	0	-0.011464	-0.212787	0.07119	1.727087E+9
-5775.41	-4	10.597161	1.924943	-0.01095	0	-0.011525	-0.212787	0.071311	1.727088E+9
-5473	-3.75	10.597161	1.933637	-0.0109	0	-0.011093	-0.212787	0.071187	1.727089E+9
-5157.87	-3.5	10.597161	1.934533	-0.011071	0	-0.010699	-0.212787	0.071117	1.72709E+9
-4830.87	-3.25	10.597161	1.926769	-0.011465	0	-0.01173	-0.212787	0.071309	1.727091E+9
-4492.85	-3	10.597161	1.945209	-0.011596	0	-0.011408	-0.212787	0.071476	1.727092E+9
-4144.67	-2.75	10.597161	1.940378	-0.012016	0	-0.010926	-0.212787	0.071579	1.727093E+9
-3787.18	-2.5	10.597161	1.948464	-0.011396	0	-0.011796	-0.212787	0.071167	1.727094E+9
-3421.24	-2.25	10.597161	1.940355	-0.011941	0	-0.010933	-0.212787	0.071697	1.727095E+9
-3047.69	-2	10.597161	1.957366	-0.011388	0	-0.01102	-0.212787	0.071209	1.727096E+9
-2896.33	-1.9	10.597161	1.968084	-0.011515	0	-0.010865	-0.212787	0.071087	1.727097E+9
-2743.95	-1.8	10.597161	1.968422	-0.012034	0	-0.011623	-0.212787	0.071329	1.727098E+9
-2590.6	-1.7	10.597161	1.971521	-0.011272	0	-0.011315	-0.212787	0.071402	1.727099E+9
-2436.33	-1.6	10.597161	1.972723	-0.01173	0	-0.011292	-0.212787	0.071123	1.7271E+9
-2281.19	-1.5	10.597161	1.980202	-0.011407	0	-0.01151	-0.212787	0.071615	1.727101E+9
-2125.26	-1.4	10.597161	1.977515	-0.011694	0	-0.011115	-0.212787	0.071218	1.727102E+9
-1968.57	-1.3	10.597161	1.972863	-0.011198	0	-0.010804	-0.212787	0.071396	1.727103E+9
-1811.18	-1.2	10.597161	1.984074	-0.010881	0	-0.010885	-0.212787	0.071627	1.727104E+9
-1653.15	-1.1	10.597161	1.989841	-0.010861	0	-0.01106	-0.212787	0.07147	1.727105E+9
-1494.53	-1	10.597161	1.999675	-0.011406	0	-0.011098	-0.212787	0.071142	1.727106E+9
-1335.37	-0.9	10.597161	2.014347	-0.011023	0	-0.010637	-0.212787	0.071165	1.727107E+9
-1175.74	-0.8	10.597161	2.02458	-0.010738	0	-0.011327	-0.212787	0.071095	1.727108E+9
-1015.68	-0.7	10.597161	2.041724	-0.011361	0	-0.01093	-0.212787	0.071117	1.727109E+9
-855.25	-0.6	10.597161	2.073049	-0.010332	0	-0.010973	-0.212787	0.071035	1.72711E+9
-694.51	-0.5	10.597161	2.096288	-0.010722	0	-0.0106	-0.212787	0.071159	1.727111E+9
-533.51	-0.4	10.597161	2.121817	-0.011501	0	-0.010869	-0.212787	0.071223	1.727112E+9
-372.3	-0.3	10.597161	2.173811	-0.011498	0	-0.010919	-0.212787	0.071451	1.727113E+9
-210.93	-0.2	10.597161	2.223804	-0.010504	0	-0.01021	-0.212787	0.071203	1.727114E+9
-49.47	-0.1	10.597161	2.272919	-0.010664	0	-0.011133	-0.212787	0.071173	1.727115E+9
112.03	0	10.597161	2.328782	-0.010775	0	-0.01053	-0.212787	0.070894	1.727116E+9
273.52	0.1	10.597161	2.373996	-0.00994	0	-0.010579	-0.212787	0.070912	1.727117E+9
434.94	0.2	10.597161	2.387196	-0.010127	0	-0.009495	-0.212787	0.071119	1.727118E+9
596.24	0.3	10.597161	2.380812	-0.009609	0	-0.008782	-0.212787	0.071145	1.727119E+9
757.37	0.4	10.597161	2.224268	-0.006259	0	-0.007021	-0.212787	0.070989	1.72712E+9
918.26	0.5	10.597161	1.787554	-0.004361	0	-0.004286	-0.212787	0.071181	1.727121E+9
1078.87	0.6	9.828274	1.531906	-0.004203	0	-0.004499	-0.212787	0.071324	1.727122E+9
1239.14	0.7	8.53237	1.355681	-0.002531	0	-0.002529	-0.212787	0.070824	1.727123E+9
1399.02	0.8	7.407497	1.19726	-0.002454	0	-0.002199	-0.212787	0.071228	1.727124E+9
1558.44	0.9	6.396021	1.034332	-0.001188	0	-0.00145	-0.212787	0.070715	1.727125E+9
1717.37	1	5.475232	0.887428	-0.001023	0	-0.001256	-0.212787	0.071315	1.727126E+9
1875.73	1.1	4.612666	0.749506	-0.000244	0	-7.6E-5	-0.212787	0.070728	1.727127E+9
2033.48	1.2	3.790874	0.612556	-0.000279	0	-0.000316	-0.212787	0.071195	1.727128E+9
2190.57	1.3	2.939548	0.477319	0.000507	0	0.000916	-0.212787	0.071138	1.727129E+9
2346.93	1.4	2.045685	0.334219	0.001167	0	0.001696	-0.212787	0.070914	1.72713E+9
2502.52	1.5	1.113847	0.176217	0.000874	0	0.001553	-0.212787	0.070892	1.727131E+9
2657.27	1.6	0.225634	0.028179	0.001969	0	0.002101	-0.212787	0.07105	1.727132E+9
2811.14	1.7	-0.458235	-0.087011	0.002534	0	0.002391	-0.212787	0.070848	1.727133E+9
2964.07	1.8	-0.839339	-0.147913	0.002718	0	0.003435	-0.212787	0.070731	1.727134E+9
3116	1.9	-0.988952	-0.174283	0.003055	0	0.00302	-0.212787	0.071179	1.727135E+9
3266.89	2	-1.046814	-0.177487	0.003108	0	0.002924	-0.212787	0.070994	1.727136E+9
3639.15	2.25	-1.078704	-0.186619	0.003155	0	0.003301	-0.212787	0.070813	1.727137E+9
4003.65	2.5	-1.100688	-0.193406	0.002802	0	0.003099	-0.212787	0.070865	1.727138E+9
4359.54	2.75	-1.118222	-0.192113	0.003464	0	0.003798	-0.212787	0.071027	1.727139E+9
4705.98	3	-1.123719	-0.192808	0.003289	0	0.003697	-0.212787	0.070976	1.72714E+9
5042.1	3.25	-1.13675	-0.194608	0.002622	0	0.002826	-0.212787	0.071209	1.727141E+9
5367.05	3.5	-1.138449	-0.193055	0.002845	0	0.003243	-0.212787	0.07104	1.727142E+9
5679.98	3.75	-1.135736	-0.197246	0.003018	0	0.003261	-0.212787	0.071132	1.727143E+9
5980.04	4	-1.13983	-0.194595	0.003679	0	0.003396	-0.212787	0.07095	1.727144E+9
