05/05/2022	15:13

Co88Tb12_20210514_CVMH2

Field	Kepco	Channel A	Channel B	Agilent	0	RF out	Monitor+	Monitor-	Time
5980.04	4	0.131757	0.097047	-0.017752	0	-0.017286	-0.212787	0.098161	1.740328E+9
5679.98	3.75	0.130279	0.099155	-0.017585	0	-0.017415	-0.212787	0.098138	1.740329E+9
5367.05	3.5	0.131279	0.090026	-0.017063	0	-0.01799	-0.212787	0.098138	1.74033E+9
5042.1	3.25	0.124522	0.090822	-0.017623	0	-0.016905	-0.212787	0.09808	1.740331E+9
4705.98	3	0.120087	0.100887	-0.016953	0	-0.017987	-0.212787	0.09796	1.740332E+9
4359.54	2.75	0.114064	0.111124	-0.017839	0	-0.01797	-0.212787	0.098111	1.740333E+9
4003.65	2.5	0.106523	0.115753	-0.018169	0	-0.017796	-0.212787	0.098188	1.740334E+9
3639.15	2.25	0.104493	0.130285	-0.017255	0	-0.017972	-0.212787	0.097974	1.740335E+9
3266.89	2	0.096397	0.13906	-0.018269	0	-0.018861	-0.212787	0.098212	1.740336E+9
2887.73	1.75	0.097748	0.142124	-0.019546	0	-0.018126	-0.212787	0.09807	1.740337E+9
2502.52	1.5	0.096342	0.134765	-0.018519	0	-0.018544	-0.212787	0.098132	1.740338E+9
2471.46	1.48	0.099324	0.133865	-0.017492	0	-0.018438	-0.212787	0.098011	1.740339E+9
2440.38	1.46	0.100549	0.131689	-0.018255	0	-0.018562	-0.212787	0.097946	1.74034E+9
2409.26	1.44	0.099178	0.127066	-0.017645	0	-0.018723	-0.212787	0.098205	1.740341E+9
2378.11	1.42	0.09795	0.130834	-0.018124	0	-0.018523	-0.212787	0.098082	1.740342E+9
2346.93	1.4	0.102826	0.121536	-0.018146	0	-0.018189	-0.212787	0.097999	1.740343E+9
2315.72	1.38	0.104961	0.10934	-0.018717	0	-0.017937	-0.212787	0.098096	1.740344E+9
2284.48	1.36	0.099629	0.120068	-0.019011	0	-0.018919	-0.212787	0.098036	1.740345E+9
2253.2	1.34	0.107989	0.108804	-0.018726	0	-0.018231	-0.212787	0.097955	1.740346E+9
2221.9	1.32	0.107599	0.094821	-0.01828	0	-0.018526	-0.212787	0.097916	1.740347E+9
2190.57	1.3	0.10974	0.093963	-0.018439	0	-0.019364	-0.212787	0.098023	1.740348E+9
2159.21	1.28	0.115383	0.086559	-0.018757	0	-0.018443	-0.212787	0.098141	1.740349E+9
2127.82	1.26	0.108005	0.081527	-0.018214	0	-0.019129	-0.212787	0.098107	1.74035E+9
2096.4	1.24	0.109197	0.09924	-0.018211	0	-0.018636	-0.212787	0.098199	1.740351E+9
2064.96	1.22	0.10678	0.108365	-0.017951	0	-0.019005	-0.212787	0.097886	1.740352E+9
2033.48	1.2	0.10755	0.110669	-0.018034	0	-0.018475	-0.212787	0.098022	1.740353E+9
2001.99	1.18	0.104496	0.104051	-0.018536	0	-0.017979	-0.212787	0.098107	1.740354E+9
1970.46	1.16	0.110162	0.107621	-0.018362	0	-0.018834	-0.212787	0.098182	1.740355E+9
1938.91	1.14	0.106634	0.100182	-0.018821	0	-0.018107	-0.212787	0.09812	1.740356E+9
1907.33	1.12	0.113596	0.084838	-0.018057	0	-0.018394	-0.212787	0.098042	1.740357E+9
1875.73	1.1	0.106237	0.076504	-0.018591	0	-0.01889	-0.212787	0.098087	1.740358E+9
1844.11	1.08	0.115454	0.077135	-0.018386	0	-0.018123	-0.212787	0.09795	1.740359E+9
1812.46	1.06	0.10883	0.084851	-0.018016	0	-0.018223	-0.212787	0.097935	1.74036E+9
1780.78	1.04	0.11845	0.076878	-0.018584	0	-0.018786	-0.212787	0.098043	1.740361E+9
1749.09	1.02	0.11639	0.075572	-0.018102	0	-0.018282	-0.212787	0.098202	1.740362E+9
1717.37	1	0.112816	0.071111	-0.017921	0	-0.018076	-0.212787	0.098105	1.740363E+9
1685.63	0.98	0.114178	0.078165	-0.017881	0	-0.018058	-0.212787	0.098135	1.740364E+9
1653.86	0.96	0.107089	0.09053	-0.017241	0	-0.018559	-0.212787	0.098106	1.740365E+9
1622.08	0.94	0.111552	0.094821	-0.017871	0	-0.017772	-0.212787	0.097956	1.740366E+9
1590.27	0.92	0.108054	0.08998	-0.017939	0	-0.018021	-0.212787	0.098188	1.740367E+9
1558.44	0.9	0.11458	0.086907	-0.017164	0	-0.018028	-0.212787	0.098016	1.740368E+9
1526.6	0.88	0.10973	0.076336	-0.017282	0	-0.017469	-0.212787	0.098099	1.740369E+9
1494.73	0.86	0.111868	0.083161	-0.018285	0	-0.018627	-0.212787	0.097988	1.74037E+9
1462.84	0.84	0.109275	0.095244	-0.017973	0	-0.018178	-0.212787	0.098121	1.740371E+9
1430.94	0.82	0.108908	0.100074	-0.018754	0	-0.017328	-0.212787	0.09812	1.740372E+9
1399.02	0.8	0.104827	0.11486	-0.017606	0	-0.018922	-0.212787	0.098009	1.740373E+9
1367.08	0.78	0.103132	0.120149	-0.017762	0	-0.018119	-0.212787	0.09788	1.740374E+9
1335.12	0.76	0.102937	0.114931	-0.019305	0	-0.018299	-0.212787	0.098035	1.740375E+9
1303.14	0.74	0.107342	0.099649	-0.018501	0	-0.018268	-0.212787	0.098006	1.740376E+9
1271.15	0.72	0.112102	0.097375	-0.018012	0	-0.017819	-0.212787	0.097916	1.740377E+9
1239.14	0.7	0.10512	0.097053	-0.018685	0	-0.017834	-0.212787	0.098031	1.740378E+9
1207.12	0.68	0.108983	0.105679	-0.018599	0	-0.018454	-0.212787	0.098072	1.740379E+9
1175.08	0.66	0.101108	0.108862	-0.018814	0	-0.018096	-0.212787	0.09795	1.74038E+9
1143.02	0.64	0.105968	0.103508	-0.018745	0	-0.017874	-0.212787	0.098073	1.740381E+9
1110.95	0.62	0.102021	0.11281	-0.018655	0	-0.018424	-0.212787	0.098112	1.740382E+9
1078.87	0.6	0.104204	0.115279	-0.018087	0	-0.01899	-0.212787	0.098013	1.740383E+9
1046.78	0.58	0.104636	0.11754	-0.018405	0	-0.017879	-0.212787	0.098069	1.740384E+9
1014.67	0.56	0.102427	0.112794	-0.018935	0	-0.018724	-0.212787	0.098036	1.740385E+9
982.54	0.54	0.10026	0.120812	-0.018801	0	-0.018548	-0.212787	0.098119	1.740386E+9
950.41	0.52	0.100594	0.122085	-0.018567	0	-0.018595	-0.212787	0.097885	1.740387E+9
918.26	0.5	0.102904	0.12638	-0.018467	0	-0.019215	-0.212787	0.097939	1.740388E+9
886.1	0.48	0.104639	0.119311	-0.018982	0	-0.018846	-0.212787	0.098083	1.740389E+9
853.93	0.46	0.106013	0.110331	-0.018927	0	-0.018767	-0.212787	0.098014	1.74039E+9
821.76	0.44	0.101712	0.113853	-0.019105	0	-0.019087	-0.212787	0.09807	1.740391E+9
789.57	0.42	0.110744	0.09731	-0.018773	0	-0.01914	-0.212787	0.098025	1.740392E+9
757.37	0.4	0.10603	0.079812	-0.019077	0	-0.0188	-0.212787	0.098127	1.740393E+9
725.16	0.38	0.118368	0.071953	-0.019054	0	-0.019168	-0.212787	0.098	1.740394E+9
692.94	0.36	0.119636	0.079617	-0.01837	0	-0.018992	-0.212787	0.098008	1.740395E+9
660.72	0.34	0.110984	0.094496	-0.018693	0	-0.01879	-0.212787	0.097908	1.740396E+9
628.48	0.32	0.108385	0.102079	-0.018213	0	-0.019525	-0.212787	0.098044	1.740397E+9
596.24	0.3	0.11179	0.101819	-0.018864	0	-0.018875	-0.212787	0.097948	1.740398E+9
563.99	0.28	0.115428	0.086923	-0.018931	0	-0.018391	-0.212787	0.097977	1.740399E+9
531.74	0.26	0.114896	0.09142	-0.018297	0	-0.018736	-0.212787	0.097962	1.7404E+9
499.48	0.24	0.115448	0.088691	-0.01852	0	-0.019174	-0.212787	0.097944	1.740401E+9
467.21	0.22	0.117072	0.095354	-0.018747	0	-0.01854	-0.212787	0.098017	1.740402E+9
434.94	0.2	0.112387	0.093544	-0.018584	0	-0.018415	-0.212787	0.097987	1.740403E+9
402.66	0.18	0.108278	0.099675	-0.018728	0	-0.01825	-0.212787	0.098041	1.740404E+9
370.38	0.16	0.109272	0.113895	-0.018953	0	-0.018572	-0.212787	0.097974	1.740405E+9
338.1	0.14	0.106608	0.121647	-0.017872	0	-0.01908	-0.212787	0.097979	1.740406E+9
305.81	0.12	0.09946	0.125594	-0.01835	0	-0.019206	-0.212787	0.09791	1.740407E+9
273.52	0.1	0.103755	0.124337	-0.019169	0	-0.018691	-0.212787	0.098029	1.740408E+9
241.22	0.08	0.102072	0.128437	-0.018827	0	-0.019572	-0.212787	0.097923	1.740409E+9
208.93	0.06	0.109473	0.114863	-0.018606	0	-0.019298	-0.212787	0.097923	1.74041E+9
176.63	0.04	0.109025	0.114571	-0.01916	0	-0.018904	-0.212787	0.098015	1.740411E+9
144.33	0.02	0.109093	0.108885	-0.019128	0	-0.018777	-0.212787	0.097983	1.740412E+9
112.03	0	0.108648	0.10884	-0.019004	0	-0.019006	-0.212787	0.097807	1.740413E+9
79.73	-0.02	0.106393	0.09924	-0.019368	0	-0.018999	-0.212787	0.098054	1.740414E+9
47.42	-0.04	0.106761	0.096517	-0.019504	0	-0.018772	-0.212787	0.098005	1.740415E+9
15.12	-0.06	0.112186	0.09924	-0.018547	0	-0.018972	-0.212787	0.097983	1.740416E+9
-17.18	-0.08	0.112319	0.092092	-0.018884	0	-0.018799	-0.212787	0.098014	1.740417E+9
-49.47	-0.1	0.111601	0.091728	-0.019228	0	-0.019413	-0.212787	0.097975	1.740418E+9
-81.77	-0.12	0.108154	0.096943	-0.019198	0	-0.018217	-0.212787	0.098041	1.740419E+9
-114.07	-0.14	0.111653	0.100909	-0.01884	0	-0.018676	-0.212787	0.09782	1.74042E+9
-146.36	-0.16	0.105454	0.10972	-0.020111	0	-0.018862	-0.212787	0.097934	1.740421E+9
-178.65	-0.18	0.097605	0.132137	-0.019748	0	-0.018889	-0.212787	0.097842	1.740422E+9
-210.93	-0.2	0.101826	0.139115	-0.020148	0	-0.019137	-0.212787	0.097957	1.740423E+9
-243.22	-0.22	0.105542	0.126906	-0.019616	0	-0.019306	-0.212787	0.097844	1.740424E+9
-275.49	-0.24	0.112478	0.113239	-0.01967	0	-0.019292	-0.212787	0.097942	1.740425E+9
-307.77	-0.26	0.112988	0.110207	-0.019565	0	-0.018845	-0.212787	0.098062	1.740426E+9
-340.03	-0.28	0.108544	0.105364	-0.019762	0	-0.019551	-0.212787	0.098025	1.740427E+9
-372.3	-0.3	0.108125	0.113239	-0.020265	0	-0.019419	-0.212787	0.097966	1.740428E+9
-404.55	-0.32	0.11215	0.12459	-0.019967	0	-0.019146	-0.212787	0.097777	1.740429E+9
-436.8	-0.34	0.110822	0.119268	-0.019902	0	-0.019472	-0.212787	0.097974	1.74043E+9
-469.04	-0.36	0.10333	0.130269	-0.020214	0	-0.019168	-0.212787	0.097999	1.740431E+9
-501.28	-0.38	0.10462	0.128566	-0.019887	0	-0.019161	-0.212787	0.097938	1.740432E+9
-533.51	-0.4	0.105906	0.123385	-0.019842	0	-0.019133	-0.212787	0.097879	1.740433E+9
-565.73	-0.42	0.114749	0.106994	-0.0201	0	-0.019436	-0.212787	0.097878	1.740434E+9
-597.94	-0.44	0.112547	0.097566	-0.019904	0	-0.019965	-0.212787	0.097841	1.740435E+9
-630.14	-0.46	0.111725	0.102475	-0.019209	0	-0.018802	-0.212787	0.098066	1.740436E+9
-662.33	-0.48	0.107716	0.102271	-0.019527	0	-0.020058	-0.212787	0.098003	1.740437E+9
-694.51	-0.5	0.098031	0.119603	-0.019821	0	-0.020098	-0.212787	0.097956	1.740438E+9
-726.68	-0.52	0.102807	0.128323	-0.019527	0	-0.020061	-0.212787	0.097843	1.740439E+9
-758.84	-0.54	0.106809	0.119717	-0.02103	0	-0.019504	-0.212787	0.097993	1.74044E+9
-790.99	-0.56	0.106432	0.123277	-0.019959	0	-0.019499	-0.212787	0.097973	1.740441E+9
-823.13	-0.58	0.111666	0.109756	-0.020656	0	-0.020109	-0.212787	0.097911	1.740442E+9
-855.25	-0.6	0.108112	0.126438	-0.020765	0	-0.020597	-0.212787	0.097945	1.740443E+9
-887.37	-0.62	0.102501	0.124548	-0.020991	0	-0.020338	-0.212787	0.098097	1.740444E+9
-919.47	-0.64	0.11076	0.115867	-0.019968	0	-0.020151	-0.212787	0.09786	1.740445E+9
-951.55	-0.66	0.106936	0.111903	-0.020221	0	-0.020346	-0.212787	0.097883	1.740446E+9
-983.62	-0.68	0.115669	0.102306	-0.01988	0	-0.019953	-0.212787	0.097908	1.740447E+9
-1015.68	-0.7	0.106835	0.114921	-0.020308	0	-0.020371	-0.212787	0.097847	1.740448E+9
-1047.73	-0.72	0.110334	0.118472	-0.02011	0	-0.02026	-0.212787	0.097995	1.740449E+9
-1079.75	-0.74	0.101199	0.127348	-0.020624	0	-0.020228	-0.212787	0.097927	1.74045E+9
-1111.76	-0.76	0.097069	0.117491	-0.019844	0	-0.020082	-0.212787	0.097809	1.740451E+9
-1143.76	-0.78	0.108226	0.12075	-0.020569	0	-0.020305	-0.212787	0.097932	1.740452E+9
-1175.74	-0.8	0.595045	0.419058	-0.021072	0	-0.021499	-0.212787	0.097905	1.740453E+9
-1207.7	-0.82	10.597161	2.571985	-0.028406	0	-0.02863	-0.212787	0.098099	1.740454E+9
-1239.65	-0.84	10.597161	2.870027	-0.030814	0	-0.030197	-0.212787	0.098038	1.740455E+9
-1271.57	-0.86	10.597161	2.949266	-0.030345	0	-0.030994	-0.212787	0.098143	1.740456E+9
-1303.48	-0.88	10.597161	2.97113	-0.03111	0	-0.031454	-0.212787	0.098222	1.740457E+9
-1335.37	-0.9	10.597161	2.982598	-0.031012	0	-0.031115	-0.212787	0.098176	1.740458E+9
-1367.24	-0.92	10.597161	2.971241	-0.031686	0	-0.032704	-0.212787	0.098092	1.740459E+9
-1399.1	-0.94	10.597161	2.951137	-0.032979	0	-0.03246	-0.212787	0.097947	1.74046E+9
-1430.93	-0.96	10.597161	2.899153	-0.033071	0	-0.03227	-0.212787	0.0981	1.740461E+9
-1462.74	-0.98	10.597161	2.753986	-0.032496	0	-0.032412	-0.212787	0.097994	1.740462E+9
-1494.53	-1	10.597161	2.477773	-0.032969	0	-0.032416	-0.212787	0.098139	1.740463E+9
-1526.3	-1.02	10.597161	2.200984	-0.032802	0	-0.032271	-0.212787	0.098132	1.740464E+9
-1558.04	-1.04	10.597161	1.891727	-0.033609	0	-0.032807	-0.212787	0.098201	1.740465E+9
-1589.77	-1.06	10.597161	1.645767	-0.033338	0	-0.03339	-0.212787	0.098095	1.740466E+9
-1621.47	-1.08	10.597161	1.473586	-0.033524	0	-0.033921	-0.212787	0.098115	1.740467E+9
-1653.15	-1.1	10.597161	1.328524	-0.033711	0	-0.033957	-0.212787	0.098237	1.740468E+9
-1684.8	-1.12	10.597161	1.185769	-0.033956	0	-0.034092	-0.212787	0.098196	1.740469E+9
-1716.43	-1.14	10.597161	1.105091	-0.034382	0	-0.034226	-0.212787	0.097948	1.74047E+9
-1748.04	-1.16	10.597161	1.024358	-0.034229	0	-0.034313	-0.212787	0.098167	1.740471E+9
-1779.62	-1.18	10.597161	0.961062	-0.034874	0	-0.034335	-0.212787	0.098183	1.740472E+9
-1811.18	-1.2	10.597161	0.882827	-0.033741	0	-0.034542	-0.212787	0.098085	1.740473E+9
-1842.71	-1.22	10.597161	0.830389	-0.034763	0	-0.034372	-0.212787	0.098213	1.740474E+9
-1874.21	-1.24	10.597161	0.811877	-0.034156	0	-0.035249	-0.212787	0.098042	1.740475E+9
-1905.69	-1.26	10.597161	0.775276	-0.034272	0	-0.034299	-0.212787	0.098155	1.740476E+9
-1937.14	-1.28	10.597161	0.742158	-0.034878	0	-0.034388	-0.212787	0.097967	1.740477E+9
-1968.57	-1.3	10.597161	0.738461	-0.03449	0	-0.034511	-0.212787	0.098034	1.740478E+9
-1999.96	-1.32	10.597161	0.724907	-0.034248	0	-0.034798	-0.212787	0.098145	1.740479E+9
-2031.33	-1.34	10.597161	0.693153	-0.034622	0	-0.034869	-0.212787	0.098219	1.74048E+9
-2062.67	-1.36	10.597161	0.682523	-0.033864	0	-0.034298	-0.212787	0.098228	1.740481E+9
-2093.98	-1.38	10.597161	0.6803	-0.034796	0	-0.034467	-0.212787	0.098061	1.740482E+9
-2125.26	-1.4	10.597161	0.667835	-0.034985	0	-0.0338	-0.212787	0.098063	1.740483E+9
-2156.51	-1.42	10.597161	0.659658	-0.033798	0	-0.034881	-0.212787	0.098156	1.740484E+9
-2187.73	-1.44	10.597161	0.651497	-0.034258	0	-0.034437	-0.212787	0.0981	1.740485E+9
-2218.91	-1.46	10.597161	0.627962	-0.034334	0	-0.034672	-0.212787	0.098162	1.740486E+9
-2250.07	-1.48	10.597161	0.612608	-0.03461	0	-0.034279	-0.212787	0.097991	1.740487E+9
-2281.19	-1.5	10.597161	0.608534	-0.0346	0	-0.034903	-0.212787	0.098171	1.740488E+9
-2667.39	-1.75	10.597161	0.572668	-0.034254	0	-0.034414	-0.212787	0.098154	1.740489E+9
-3047.69	-2	10.597161	0.566774	-0.034747	0	-0.034301	-0.212787	0.09821	1.74049E+9
-3421.24	-2.25	10.597161	0.56426	-0.035143	0	-0.034378	-0.212787	0.098093	1.740491E+9
-3787.18	-2.5	10.597161	0.576725	-0.034806	0	-0.034701	-0.212787	0.098054	1.740492E+9
-4144.67	-2.75	10.597161	0.57386	-0.035325	0	-0.034546	-0.212787	0.098126	1.740493E+9
-4492.85	-3	10.597161	0.584152	-0.03484	0	-0.034381	-0.212787	0.098138	1.740494E+9
-4830.87	-3.25	10.597161	0.578155	-0.034694	0	-0.034036	-0.212787	0.098075	1.740495E+9
-5157.87	-3.5	10.597161	0.580855	-0.035069	0	-0.034536	-0.212787	0.098187	1.740496E+9
-5473	-3.75	10.597161	0.580192	-0.034791	0	-0.034478	-0.212787	0.098087	1.740497E+9
-5775.41	-4	10.597161	0.581306	-0.035041	0	-0.034847	-0.212787	0.098078	1.740498E+9
-5473	-3.75	10.597161	0.574412	-0.03488	0	-0.03453	-0.212787	0.097973	1.740499E+9
-5157.87	-3.5	10.597161	0.580013	-0.03535	0	-0.034824	-0.212787	0.098106	1.7405E+9
-4830.87	-3.25	10.597161	0.585419	-0.035056	0	-0.034814	-0.212787	0.098113	1.740501E+9
-4492.85	-3	10.597161	0.578902	-0.035218	0	-0.034732	-0.212787	0.097958	1.740502E+9
-4144.67	-2.75	10.597161	0.57157	-0.034163	0	-0.035636	-0.212787	0.098081	1.740503E+9
-3787.18	-2.5	10.597161	0.565975	-0.035217	0	-0.035166	-0.212787	0.098044	1.740504E+9
-3421.24	-2.25	10.597161	0.570332	-0.035446	0	-0.034512	-0.212787	0.098237	1.740505E+9
-3047.69	-2	10.597161	0.567619	-0.035046	0	-0.034722	-0.212787	0.098175	1.740506E+9
-2667.39	-1.75	10.597161	0.561833	-0.034892	0	-0.034869	-0.212787	0.098195	1.740507E+9
-2281.19	-1.5	10.597161	0.560663	-0.035287	0	-0.034926	-0.212787	0.098062	1.740508E+9
-2250.07	-1.48	10.597161	0.559117	-0.035185	0	-0.035193	-0.212787	0.098029	1.740509E+9
-2218.91	-1.46	10.597161	0.562528	-0.034727	0	-0.034336	-0.212787	0.098234	1.74051E+9
-2187.73	-1.44	10.597161	0.564084	-0.034918	0	-0.034529	-0.212787	0.098092	1.740511E+9
-2156.51	-1.42	10.597161	0.565741	-0.035169	0	-0.035443	-0.212787	0.098176	1.740512E+9
-2125.26	-1.4	10.597161	0.563003	-0.035377	0	-0.034137	-0.212787	0.098027	1.740513E+9
-2093.98	-1.38	10.597161	0.556541	-0.03526	0	-0.035634	-0.212787	0.098135	1.740514E+9
-2062.67	-1.36	10.597161	0.55913	-0.034362	0	-0.035504	-0.212787	0.098097	1.740515E+9
-2031.33	-1.34	10.597161	0.556219	-0.035475	0	-0.034739	-0.212787	0.098201	1.740516E+9
-1999.96	-1.32	10.597161	0.547701	-0.035007	0	-0.034507	-0.212787	0.098187	1.740517E+9
-1968.57	-1.3	10.597161	0.556784	-0.035961	0	-0.034659	-0.212787	0.098099	1.740518E+9
-1937.14	-1.28	10.597161	0.560348	-0.034608	0	-0.035021	-0.212787	0.098054	1.740519E+9
-1905.69	-1.26	10.597161	0.561716	-0.03546	0	-0.034646	-0.212787	0.098194	1.74052E+9
-1874.21	-1.24	10.597161	0.560186	-0.035623	0	-0.034976	-0.212787	0.098144	1.740521E+9
-1842.71	-1.22	10.597161	0.573152	-0.03412	0	-0.034906	-0.212787	0.098154	1.740522E+9
-1811.18	-1.2	10.597161	0.566703	-0.034981	0	-0.034542	-0.212787	0.098053	1.740523E+9
-1779.62	-1.18	10.597161	0.553103	-0.035663	0	-0.035238	-0.212787	0.098177	1.740524E+9
-1748.04	-1.16	10.597161	0.561891	-0.035084	0	-0.035041	-0.212787	0.098229	1.740525E+9
-1716.43	-1.14	10.597161	0.563552	-0.035408	0	-0.034243	-0.212787	0.097943	1.740526E+9
-1684.8	-1.12	10.597161	0.564159	-0.034309	0	-0.035453	-0.212787	0.098192	1.740527E+9
-1653.15	-1.1	10.597161	0.552525	-0.03432	0	-0.034759	-0.212787	0.098213	1.740528E+9
-1621.47	-1.08	10.597161	0.560888	-0.03438	0	-0.035003	-0.212787	0.098049	1.740529E+9
-1589.77	-1.06	10.597161	0.552493	-0.033897	0	-0.034748	-0.212787	0.098191	1.74053E+9
-1558.04	-1.04	10.597161	0.554179	-0.034214	0	-0.035168	-0.212787	0.098006	1.740531E+9
-1526.3	-1.02	10.597161	0.551706	-0.034353	0	-0.034864	-0.212787	0.098252	1.740532E+9
-1494.53	-1	10.597161	0.559127	-0.03403	0	-0.034196	-0.212787	0.098209	1.740533E+9
-1462.74	-0.98	10.597161	0.546482	-0.034642	0	-0.034143	-0.212787	0.09815	1.740534E+9
-1430.93	-0.96	10.597161	0.564266	-0.034711	0	-0.034981	-0.212787	0.098158	1.740535E+9
-1399.1	-0.94	10.597161	0.568217	-0.035191	0	-0.035678	-0.212787	0.098118	1.740536E+9
-1367.24	-0.92	10.597161	0.574763	-0.034756	0	-0.034649	-0.212787	0.098035	1.740537E+9
-1335.37	-0.9	10.597161	0.570845	-0.03529	0	-0.035439	-0.212787	0.097932	1.740538E+9
-1303.48	-0.88	10.597161	0.5654	-0.035549	0	-0.035695	-0.212787	0.098132	1.740539E+9
-1271.57	-0.86	10.597161	0.564757	-0.035656	0	-0.035286	-0.212787	0.098165	1.74054E+9
-1239.65	-0.84	10.597161	0.551606	-0.035685	0	-0.035665	-0.212787	0.098085	1.740541E+9
-1207.7	-0.82	10.597161	0.566352	-0.035013	0	-0.03577	-0.212787	0.098027	1.740542E+9
-1175.74	-0.8	10.597161	0.559656	-0.034829	0	-0.036098	-0.212787	0.098082	1.740543E+9
-1143.76	-0.78	10.597161	0.557824	-0.035308	0	-0.034736	-0.212787	0.098075	1.740544E+9
-1111.76	-0.76	10.597161	0.55784	-0.034874	0	-0.035314	-0.212787	0.09814	1.740545E+9
-1079.75	-0.74	10.597161	0.565693	-0.034395	0	-0.035409	-0.212787	0.098056	1.740546E+9
-1047.73	-0.72	10.597161	0.565455	-0.03516	0	-0.035627	-0.212787	0.098139	1.740547E+9
-1015.68	-0.7	10.597161	0.567336	-0.03577	0	-0.035908	-0.212787	0.098196	1.740548E+9
-983.62	-0.68	10.597161	0.565556	-0.034597	0	-0.034971	-0.212787	0.09808	1.740549E+9
-951.55	-0.66	10.597161	0.558428	-0.034671	0	-0.035307	-0.212787	0.098052	1.74055E+9
-919.47	-0.64	10.597161	0.56949	-0.034366	0	-0.035078	-0.212787	0.098162	1.740551E+9
-887.37	-0.62	10.597161	0.570316	-0.035856	0	-0.035494	-0.212787	0.0981	1.740552E+9
-855.25	-0.6	10.597161	0.569461	-0.036345	0	-0.03549	-0.212787	0.09795	1.740553E+9
-823.13	-0.58	10.597161	0.559884	-0.034919	0	-0.036069	-0.212787	0.098085	1.740554E+9
-790.99	-0.56	10.597161	0.570569	-0.036266	0	-0.035948	-0.212787	0.098127	1.740555E+9
-758.84	-0.54	10.597161	0.554842	-0.035857	0	-0.035825	-0.212787	0.09808	1.740556E+9
-726.68	-0.52	10.597161	0.561404	-0.035833	0	-0.03545	-0.212787	0.098043	1.740557E+9
-694.51	-0.5	10.597161	0.546479	-0.036235	0	-0.035083	-0.212787	0.098006	1.740558E+9
-662.33	-0.48	10.597161	0.550933	-0.035987	0	-0.035645	-0.212787	0.098034	1.740559E+9
-630.14	-0.46	10.597161	0.554653	-0.035558	0	-0.035824	-0.212787	0.098108	1.74056E+9
-597.94	-0.44	10.597161	0.550885	-0.036037	0	-0.03561	-0.212787	0.098159	1.740561E+9
-565.73	-0.42	10.597161	0.545745	-0.035922	0	-0.036416	-0.212787	0.097905	1.740562E+9
