31/05/2022	19:06

Si\Ta3\(Co90Tb1075nm\Pt3-20220531_APEJ3

Field	Kepco	Channel A	Channel B	Agilent	0	RF out	Monitor+	Monitor-	Time
6096.26	4.1	3.91866	-0.670544	-0.000327	0	-9.4E-5	-0.212787	0.095308	4.000101E+9
5741.05	3.8	3.921964	-0.67274	-6.7E-5	0	0.000355	-0.212787	0.095344	4.000102E+9
5367.05	3.5	3.924105	-0.673114	0.000482	0	0.00023	-0.212787	0.09556	4.000103E+9
4975.74	3.2	3.926629	-0.673117	0.000636	0	-0.000261	-0.212787	0.095316	4.000104E+9
4568.59	2.9	3.928429	-0.672643	-0.000109	0	-0.000945	-0.212787	0.095662	4.000105E+9
4147.09	2.6	3.929228	-0.673163	-0.000864	0	-0.000571	-0.212787	0.095617	4.000106E+9
3712.69	2.3	3.931073	-0.673741	-0.000167	0	8.8E-5	-0.212787	0.096032	4.000107E+9
3266.89	2	3.932415	-0.67263	-0.000509	0	-0.000115	-0.212787	0.095543	4.000108E+9
3116	1.9	3.932672	-0.673072	0.000359	0	0.000177	-0.212787	0.096148	4.000109E+9
2964.07	1.8	3.930989	-0.671756	0.000584	0	-0.000889	-0.212787	0.095309	4.00011E+9
2811.14	1.7	3.932097	-0.67171	0.000373	0	-0.000334	-0.212787	0.095375	4.000111E+9
2657.27	1.6	3.933643	-0.67238	-0.001114	0	-0.000939	-0.212787	0.09532	4.000112E+9
2502.52	1.5	3.932633	-0.671122	-0.000661	0	-4E-5	-0.212787	0.095458	4.000113E+9
2346.93	1.4	3.93338	-0.672438	-0.000961	0	0.000125	-0.212787	0.096201	4.000114E+9
2190.57	1.3	3.933117	-0.672877	2.7E-5	0	-0.00089	-0.212787	0.095389	4.000115E+9
2033.48	1.2	3.933195	-0.672406	0.000279	0	0.000557	-0.212787	0.096262	4.000116E+9
1875.73	1.1	3.934907	-0.671402	-0.000251	0	0.000129	-0.212787	0.095337	4.000117E+9
1717.37	1	3.934013	-0.671983	-0.000278	0	-0.000142	-0.212787	0.095275	4.000118E+9
1558.44	0.9	3.933503	-0.67097	-0.000918	0	0.000305	-0.212787	0.095301	4.000119E+9
1399.02	0.8	3.933744	-0.671759	-0.000885	0	-0.000136	-0.212787	0.095334	4.00012E+9
1239.14	0.7	3.933832	-0.673738	0.000416	0	-0.000683	-0.212787	0.095847	4.000121E+9
1078.87	0.6	3.934491	-0.672912	-0.000258	0	0.000446	-0.212787	0.096284	4.000122E+9
918.26	0.5	3.933578	-0.671038	-0.000541	0	-0.000783	-0.212787	0.095996	4.000123E+9
757.37	0.4	3.93516	-0.672471	-0.000618	0	-0.00056	-0.212787	0.09537	4.000124E+9
596.24	0.3	3.933854	-0.671411	-0.000352	0	-0.000466	-0.212787	0.095601	4.000125E+9
434.94	0.2	3.932867	-0.672042	-0.000155	0	-0.000496	-0.212787	0.095367	4.000126E+9
273.52	0.1	3.935368	-0.671899	-0.000742	0	0.000356	-0.212787	0.095333	4.000127E+9
112.03	0	3.933611	-0.671376	1.6E-5	0	-0.000433	-0.212787	0.096203	4.000128E+9
-49.47	-0.1	3.935021	-0.671353	0.00069	0	-0.000623	-0.212787	0.09532	4.000129E+9
-210.93	-0.2	3.934969	-0.671463	9.7E-5	0	0.000381	-0.212787	0.095902	4.00013E+9
-372.3	-0.3	3.933672	-0.671896	0.000582	0	-0.000198	-0.212787	0.095387	4.000131E+9
-533.51	-0.4	2.051221	-0.325989	-0.002528	0	-0.002512	-0.212787	0.096245	4.000132E+9
-694.51	-0.5	-0.234825	0.084279	-0.005609	0	-0.004281	-0.212787	0.09556	4.000133E+9
-855.25	-0.6	-1.129697	0.243938	-0.005421	0	-0.006321	-0.212787	0.096313	4.000134E+9
-1015.68	-0.7	-1.760383	0.359894	-0.006195	0	-0.006898	-0.212787	0.096369	4.000135E+9
-1175.74	-0.8	-2.27002	0.451127	-0.006831	0	-0.007373	-0.212787	0.095537	4.000136E+9
-1335.37	-0.9	-2.672309	0.523549	-0.008368	0	-0.007436	-0.212787	0.096378	4.000137E+9
-1494.53	-1	-3.011263	0.584532	-0.008519	0	-0.008369	-0.212787	0.095528	4.000138E+9
-1653.15	-1.1	-3.279923	0.632579	-0.008092	0	-0.008089	-0.212787	0.095681	4.000139E+9
-1811.18	-1.2	-3.483247	0.670252	-0.008877	0	-0.008975	-0.212787	0.095897	4.00014E+9
-1968.57	-1.3	-3.643991	0.699657	-0.008301	0	-0.009126	-0.212787	0.095792	4.000141E+9
-2125.26	-1.4	-3.75486	0.718383	-0.009262	0	-0.009408	-0.212787	0.095536	4.000142E+9
-2281.19	-1.5	-3.830703	0.730589	-0.009375	0	-0.008789	-0.212787	0.096397	4.000143E+9
-2436.33	-1.6	-3.873396	0.739117	-0.009467	0	-0.008939	-0.212787	0.096298	4.000144E+9
-2590.6	-1.7	-3.907999	0.744091	-0.008274	0	-0.009423	-0.212787	0.096283	4.000145E+9
-2743.95	-1.8	-3.937323	0.750237	-0.009206	0	-0.009419	-0.212787	0.096168	4.000146E+9
-2896.33	-1.9	-3.966867	0.755419	-0.009605	0	-0.009481	-0.212787	0.095642	4.000147E+9
-3047.69	-2	-4.005427	0.76281	-0.009604	0	-0.009824	-0.212787	0.09608	4.000148E+9
-3495.06	-2.3	-4.030177	0.765903	-0.010124	0	-0.009167	-0.212787	0.096331	4.000149E+9
-3931.24	-2.6	-4.028988	0.766572	-0.010413	0	-0.009741	-0.212787	0.095472	4.00015E+9
-4354.75	-2.9	-4.02941	0.766299	-0.009432	0	-0.009653	-0.212787	0.096279	4.000151E+9
-4764.12	-3.2	-4.029374	0.765939	-0.009516	0	-0.009992	-0.212787	0.095645	4.000152E+9
-5157.87	-3.5	-4.027571	0.765627	-0.009784	0	-0.009726	-0.212787	0.096322	4.000153E+9
-5534.53	-3.8	-4.026399	0.76525	-0.009779	0	-0.009249	-0.212787	0.096379	4.000154E+9
-5892.62	-4.1	-4.025544	0.763769	-0.009734	0	-0.009866	-0.212787	0.095942	4.000155E+9
-5534.53	-3.8	-4.029852	0.76591	-0.009529	0	-0.009039	-0.212787	0.095643	4.000156E+9
-5157.87	-3.5	-4.032672	0.766761	-0.009864	0	-0.009229	-0.212787	0.095545	4.000157E+9
-4764.12	-3.2	-4.036255	0.766303	-0.009648	0	-0.009448	-0.212787	0.096007	4.000158E+9
-4354.75	-2.9	-4.038429	0.766446	-0.009981	0	-0.009665	-0.212787	0.096308	4.000159E+9
-3931.24	-2.6	-4.039527	0.766358	-0.009455	0	-0.009139	-0.212787	0.096339	4.00016E+9
-3495.06	-2.3	-4.041096	0.766816	-0.009977	0	-0.009632	-0.212787	0.095492	4.000161E+9
-3047.69	-2	-4.040508	0.766946	-0.009815	0	-0.009657	-0.212787	0.095898	4.000162E+9
-2896.33	-1.9	-4.041044	0.766082	-0.009835	0	-0.009945	-0.212787	0.095657	4.000163E+9
-2743.95	-1.8	-4.043357	0.765617	-0.0103	0	-0.009754	-0.212787	0.096249	4.000164E+9
-2590.6	-1.7	-4.041363	0.76703	-0.008647	0	-0.010485	-0.212787	0.095491	4.000165E+9
-2436.33	-1.6	-4.042295	0.765286	-0.009922	0	-0.009033	-0.212787	0.09579	4.000166E+9
-2281.19	-1.5	-4.042594	0.766072	-0.009765	0	-0.009235	-0.212787	0.096298	4.000167E+9
-2125.26	-1.4	-4.042071	0.767849	-0.008843	0	-0.00979	-0.212787	0.096384	4.000168E+9
-1968.57	-1.3	-4.042457	0.766212	-0.008936	0	-0.009586	-0.212787	0.095584	4.000169E+9
-1811.18	-1.2	-4.043422	0.767027	-0.008628	0	-0.009914	-0.212787	0.096085	4.00017E+9
-1653.15	-1.1	-4.043403	0.768665	-0.009768	0	-0.009424	-0.212787	0.095897	4.000171E+9
-1494.53	-1	-4.044784	0.767274	-0.009579	0	-0.009649	-0.212787	0.095523	4.000172E+9
-1335.37	-0.9	-4.042971	0.766894	-0.008991	0	-0.009269	-0.212787	0.096295	4.000173E+9
-1175.74	-0.8	-4.045274	0.76756	-0.009337	0	-0.00888	-0.212787	0.095548	4.000174E+9
-1015.68	-0.7	-4.044771	0.76513	-0.008901	0	-0.009988	-0.212787	0.095883	4.000175E+9
-855.25	-0.6	-4.045849	0.767657	-0.009949	0	-0.010289	-0.212787	0.095586	4.000176E+9
-694.51	-0.5	-4.045544	0.764802	-0.009692	0	-0.009715	-0.212787	0.095515	4.000177E+9
-533.51	-0.4	-4.045872	0.766212	-0.009411	0	-0.009727	-0.212787	0.095524	4.000178E+9
-372.3	-0.3	-4.045466	0.767066	-0.00992	0	-0.009386	-0.212787	0.095669	4.000179E+9
-210.93	-0.2	-4.044533	0.766852	-0.009121	0	-0.009535	-0.212787	0.096103	4.00018E+9
-49.47	-0.1	-4.044978	0.766855	-0.009232	0	-0.00976	-0.212787	0.095604	4.000181E+9
112.03	0	-0.464122	0.119499	-0.004564	0	-0.005278	-0.212787	0.095906	4.000182E+9
273.52	0.1	0.688072	-0.0869	-0.003435	0	-0.004089	-0.212787	0.096316	4.000183E+9
434.94	0.2	1.406281	-0.213451	-0.003397	0	-0.003257	-0.212787	0.095497	4.000184E+9
596.24	0.3	1.955891	-0.312825	-0.00271	0	-0.002551	-0.212787	0.095569	4.000185E+9
757.37	0.4	2.400779	-0.391654	-0.002359	0	-0.002118	-0.212787	0.095571	4.000186E+9
918.26	0.5	2.768024	-0.456305	-0.002174	0	-0.000892	-0.212787	0.095515	4.000187E+9
1078.87	0.6	3.065671	-0.510479	-0.001409	0	-0.000465	-0.212787	0.095559	4.000188E+9
1239.14	0.7	3.301765	-0.553389	-0.001033	0	-0.001078	-0.212787	0.095444	4.000189E+9
1399.02	0.8	3.475667	-0.584256	-0.000401	0	-0.000897	-0.212787	0.095632	4.00019E+9
1558.44	0.9	3.605334	-0.606273	-0.000903	0	-0.001035	-0.212787	0.096212	4.000191E+9
1717.37	1	3.692535	-0.622498	-0.000899	0	-0.000931	-0.212787	0.095948	4.000192E+9
1875.73	1.1	3.751229	-0.632374	-0.000348	0	0.000569	-0.212787	0.095749	4.000193E+9
2033.48	1.2	3.789565	-0.639164	-0.000145	0	-0.000433	-0.212787	0.096226	4.000194E+9
2190.57	1.3	3.818362	-0.643972	-0.000741	0	-0.000446	-0.212787	0.096298	4.000195E+9
2346.93	1.4	3.850847	-0.650804	0.000423	0	-0.001692	-0.212787	0.09532	4.000196E+9
2502.52	1.5	3.888312	-0.656561	-0.000345	0	-0.000408	-0.212787	0.095324	4.000197E+9
2657.27	1.6	3.915947	-0.662152	-0.000848	0	0.000246	-0.212787	0.095322	4.000198E+9
2811.14	1.7	3.923744	-0.663007	0.000425	0	0.000158	-0.212787	0.095341	4.000199E+9
2964.07	1.8	3.92622	-0.663017	0.000278	0	0.000455	-0.212787	0.09544	4.0002E+9
3116	1.9	3.926236	-0.663858	1.9E-5	0	-0.000516	-0.212787	0.096011	4.000201E+9
3266.89	2	3.925817	-0.663904	0.000826	0	-0.000676	-0.212787	0.095309	4.000202E+9
3712.69	2.3	3.925326	-0.66223	6.3E-5	0	0.000154	-0.212787	0.095393	4.000203E+9
4147.09	2.6	3.924088	-0.661382	2.4E-5	0	0.000261	-0.212787	0.095557	4.000204E+9
4568.59	2.9	3.924637	-0.662529	3E-6	0	-0.000253	-0.212787	0.095339	4.000205E+9
4975.74	3.2	3.922841	-0.661711	0.000246	0	0.000354	-0.212787	0.095588	4.000206E+9
5367.05	3.5	3.92275	-0.662578	0.000662	0	0.000113	-0.212787	0.096197	4.000207E+9
5741.05	3.8	3.921395	-0.661314	0.000334	0	-7E-5	-0.212787	0.095776	4.000208E+9
6096.26	4.1	3.92019	-0.660154	2E-5	0	-0.00015	-0.212787	0.095234	4.000209E+9
