31/05/2022	19:03

Si\Ta3\(Co90Tb1075nm\Pt3-20220531_APEJ3

Field	Kepco	Channel A	Channel B	Agilent	0	RF out	Monitor+	Monitor-	Time
6096.26	4.1	3.912721	-0.694507	0.000588	0	0.00018	-0.212787	0.095857	3.999884E+9
5741.05	3.8	3.914793	-0.694127	-2.6E-5	0	0.000966	-0.212787	0.095326	3.999884E+9
5367.05	3.5	3.917201	-0.694072	0.000687	0	0.000775	-0.212787	0.095966	3.999885E+9
4975.74	3.2	3.918458	-0.694527	0.000574	0	-4.8E-5	-0.212787	0.095441	3.999886E+9
4568.59	2.9	3.919852	-0.694156	0.000976	0	-2.3E-5	-0.212787	0.095211	3.999887E+9
4147.09	2.6	3.92212	-0.694881	0.000855	0	0.000888	-0.212787	0.095246	3.999888E+9
3712.69	2.3	3.92109	-0.69544	0.00101	0	0.000739	-0.212787	0.095213	3.999889E+9
3266.89	2	3.922526	-0.695024	0.00089	0	0.000765	-0.212787	0.095295	3.99989E+9
3116	1.9	3.922149	-0.694692	0.000327	0	0.000524	-0.212787	0.095133	3.999891E+9
2964.07	1.8	3.923406	-0.695118	0.000803	0	-0.00016	-0.212787	0.095426	3.999892E+9
2811.14	1.7	3.922873	-0.694238	0.000372	0	-0.000269	-0.212787	0.095271	3.999893E+9
2657.27	1.6	3.924923	-0.69454	0.000386	0	0.000155	-0.212787	0.095264	3.999894E+9
2502.52	1.5	3.923539	-0.693984	0.000743	0	0.00102	-0.212787	0.095287	3.999895E+9
2346.93	1.4	3.924449	-0.693685	0.000174	0	0.000704	-0.212787	0.096072	3.999896E+9
2190.57	1.3	3.925017	-0.693494	0.000656	0	0.000192	-0.212787	0.096013	3.999897E+9
2033.48	1.2	3.924725	-0.694614	6.7E-5	0	0.000281	-0.212787	0.095799	3.999898E+9
1875.73	1.1	3.925222	-0.693624	0.000905	0	0.000875	-0.212787	0.095283	3.999899E+9
1717.37	1	3.926291	-0.694059	-0.000456	0	0.000763	-0.212787	0.096019	3.9999E+9
1558.44	0.9	3.926626	-0.694101	0.000588	0	0.000525	-0.212787	0.095319	3.999901E+9
1399.02	0.8	3.926112	-0.692145	0.000561	0	-0.000262	-0.212787	0.095237	3.999902E+9
1239.14	0.7	3.925784	-0.692831	0.000132	0	0.000236	-0.212787	0.09578	3.999903E+9
1078.87	0.6	3.926112	-0.694322	0.000186	0	-0.00053	-0.212787	0.095904	3.999904E+9
918.26	0.5	3.925206	-0.69261	0.000776	0	0.001178	-0.212787	0.095979	3.999905E+9
757.37	0.4	3.925287	-0.693516	-0.000343	0	0.000712	-0.212787	0.095267	3.999906E+9
596.24	0.3	3.926067	-0.692246	0.000954	0	0.000127	-0.212787	0.095368	3.999907E+9
434.94	0.2	3.927704	-0.6935	0.000946	0	0.000429	-0.212787	0.095979	3.999908E+9
273.52	0.1	3.92801	-0.692262	0.00069	0	-0.000148	-0.212787	0.096109	3.999909E+9
112.03	0	3.928361	-0.693107	0.000482	0	0.000137	-0.212787	0.095255	3.99991E+9
-49.47	-0.1	3.927457	-0.693065	0.000114	0	0.000758	-0.212787	0.095305	3.999911E+9
-210.93	-0.2	3.926746	-0.692597	-7E-5	0	-0.0002	-0.212787	0.095904	3.999912E+9
-372.3	-0.3	3.926769	-0.69259	0.000263	0	0.000579	-0.212787	0.095178	3.999913E+9
-533.51	-0.4	2.20064	-0.361392	-0.002439	0	-0.002445	-0.212787	0.095282	3.999914E+9
-694.51	-0.5	-0.207473	0.080198	-0.004446	0	-0.00494	-0.212787	0.095691	3.999915E+9
-855.25	-0.6	-1.109603	0.246618	-0.006312	0	-0.005683	-0.212787	0.095278	3.999916E+9
-1015.68	-0.7	-1.738655	0.363335	-0.007303	0	-0.005947	-0.212787	0.095322	3.999917E+9
-1175.74	-0.8	-2.240962	0.456029	-0.007314	0	-0.007021	-0.212787	0.095707	3.999918E+9
-1335.37	-0.9	-2.649467	0.532266	-0.007584	0	-0.007513	-0.212787	0.095903	3.999919E+9
-1494.53	-1	-2.98743	0.595731	-0.008125	0	-0.008326	-0.212787	0.095521	3.99992E+9
-1653.15	-1.1	-3.252006	0.642468	-0.008631	0	-0.008509	-0.212787	0.095292	3.999921E+9
-1811.18	-1.2	-3.459378	0.682851	-0.009215	0	-0.008441	-0.212787	0.095989	3.999922E+9
-1968.57	-1.3	-3.612097	0.710726	-0.00886	0	-0.008624	-0.212787	0.095407	3.999923E+9
-2125.26	-1.4	-3.73011	0.732171	-0.009054	0	-0.008874	-0.212787	0.096053	3.999924E+9
-2281.19	-1.5	-3.804914	0.746404	-0.008853	0	-0.0091	-0.212787	0.09612	3.999925E+9
-2436.33	-1.6	-3.856632	0.75462	-0.009589	0	-0.009548	-0.212787	0.095961	3.999926E+9
-2590.6	-1.7	-3.88963	0.759984	-0.009324	0	-0.008606	-0.212787	0.095412	3.999927E+9
-2743.95	-1.8	-3.917183	0.766663	-0.009627	0	-0.009599	-0.212787	0.095543	3.999928E+9
-2896.33	-1.9	-3.953999	0.774097	-0.009281	0	-0.009103	-0.212787	0.095385	3.999929E+9
-3047.69	-2	-3.99279	0.781783	-0.009117	0	-0.009146	-0.212787	0.09599	3.99993E+9
-3495.06	-2.3	-4.012516	0.783934	-0.0083	0	-0.009535	-0.212787	0.095438	3.999931E+9
-3931.24	-2.6	-4.014206	0.784399	-0.009765	0	-0.009248	-0.212787	0.095358	3.999932E+9
-4354.75	-2.9	-4.012445	0.784792	-0.009851	0	-0.009112	-0.212787	0.09543	3.999933E+9
-4764.12	-3.2	-4.011951	0.784041	-0.00874	0	-0.00926	-0.212787	0.095401	3.999934E+9
-5157.87	-3.5	-4.009401	0.783417	-0.008318	0	-0.00915	-0.212787	0.095549	3.999935E+9
-5534.53	-3.8	-4.00903	0.782667	-0.008266	0	-0.009742	-0.212787	0.095992	3.999936E+9
-5892.62	-4.1	-4.008069	0.781608	-0.009091	0	-0.009463	-0.212787	0.095396	3.999937E+9
-5534.53	-3.8	-4.008563	0.782183	-0.008735	0	-0.009414	-0.212787	0.096129	3.999938E+9
-5157.87	-3.5	-4.015853	0.785519	-0.009119	0	-0.009279	-0.212787	0.095412	3.999939E+9
-4764.12	-3.2	-4.018199	0.784376	-0.0094	0	-0.00853	-0.212787	0.095443	3.99994E+9
-4354.75	-2.9	-4.020275	0.784213	-0.009328	0	-0.009633	-0.212787	0.09543	3.999941E+9
-3931.24	-2.6	-4.021233	0.785948	-0.008937	0	-0.009569	-0.212787	0.095433	3.999942E+9
-3495.06	-2.3	-4.023449	0.784785	-0.009388	0	-0.009302	-0.212787	0.095894	3.999943E+9
-3047.69	-2	-4.024225	0.784775	-0.009555	0	-0.009245	-0.212787	0.096188	3.999944E+9
-2896.33	-1.9	-4.025206	0.783992	-0.009465	0	-0.009158	-0.212787	0.09626	3.999945E+9
-2743.95	-1.8	-4.023666	0.783352	-0.008576	0	-0.008948	-0.212787	0.095421	3.999946E+9
-2590.6	-1.7	-4.024885	0.784272	-0.008933	0	-0.009593	-0.212787	0.096221	3.999947E+9
-2436.33	-1.6	-4.024456	0.785578	-0.009217	0	-0.009274	-0.212787	0.096001	3.999948E+9
-2281.19	-1.5	-4.025492	0.785503	-0.009532	0	-0.009648	-0.212787	0.095425	3.999949E+9
-2125.26	-1.4	-4.026295	0.785578	-0.008864	0	-0.009012	-0.212787	0.095734	3.99995E+9
-1968.57	-1.3	-4.025888	0.785019	-0.009988	0	-0.008675	-0.212787	0.095434	3.999951E+9
-1811.18	-1.2	-4.026792	0.784285	-0.009684	0	-0.009638	-0.212787	0.09542	3.999952E+9
-1653.15	-1.1	-4.027068	0.785094	-0.009982	0	-0.009342	-0.212787	0.096091	3.999953E+9
-1494.53	-1	-4.027217	0.784779	-0.00979	0	-0.009508	-0.212787	0.095967	3.999954E+9
-1335.37	-0.9	-4.028946	0.785435	-0.009384	0	-0.009389	-0.212787	0.095978	3.999955E+9
-1175.74	-0.8	-4.029072	0.784311	-0.010172	0	-0.009367	-0.212787	0.095457	3.999956E+9
-1015.68	-0.7	-4.029222	0.78563	-0.00962	0	-0.00944	-0.212787	0.095405	3.999957E+9
-855.25	-0.6	-4.029303	0.786111	-0.009891	0	-0.009583	-0.212787	0.095747	3.999958E+9
-694.51	-0.5	-4.029677	0.785156	-0.010369	0	-0.009122	-0.212787	0.096131	3.999959E+9
-533.51	-0.4	-4.029186	0.784681	-0.010246	0	-0.009703	-0.212787	0.095446	3.99996E+9
-372.3	-0.3	-4.030625	0.784613	-0.010233	0	-0.009142	-0.212787	0.09553	3.999961E+9
-210.93	-0.2	-4.030599	0.78295	-0.009493	0	-0.009404	-0.212787	0.096168	3.999962E+9
-49.47	-0.1	-4.030258	0.782953	-0.009006	0	-0.009554	-0.212787	0.095433	3.999963E+9
112.03	0	-0.437004	0.116198	-0.005512	0	-0.004901	-0.212787	0.095297	3.999964E+9
273.52	0.1	0.710267	-0.096114	-0.00408	0	-0.004165	-0.212787	0.096104	3.999965E+9
434.94	0.2	1.410527	-0.22372	-0.002974	0	-0.003905	-0.212787	0.095597	3.999966E+9
596.24	0.3	1.952983	-0.322789	-0.003548	0	-0.002261	-0.212787	0.095225	3.999967E+9
757.37	0.4	2.397498	-0.405851	-0.002826	0	-0.002321	-0.212787	0.096097	3.999968E+9
918.26	0.5	2.763635	-0.471701	-0.00122	0	-0.001261	-0.212787	0.095444	3.999969E+9
1078.87	0.6	3.063357	-0.528126	-0.001395	0	-0.001683	-0.212787	0.095309	3.99997E+9
1239.14	0.7	3.300371	-0.571511	-0.000972	0	-0.00189	-0.212787	0.09605	3.999971E+9
1399.02	0.8	3.480541	-0.604415	-0.000518	0	-0.000753	-0.212787	0.095324	3.999972E+9
1558.44	0.9	3.60009	-0.626191	0.000692	0	-0.000785	-0.212787	0.095984	3.999973E+9
1717.37	1	3.684595	-0.642351	4.9E-5	0	-0.000795	-0.212787	0.095193	3.999974E+9
1875.73	1.1	3.745891	-0.651915	-0.000145	0	0.000433	-0.212787	0.095261	3.999975E+9
2033.48	1.2	3.785845	-0.660541	0.000419	0	-0.000352	-0.212787	0.095637	3.999976E+9
2190.57	1.3	3.812842	-0.665093	-0.000434	0	-0.000117	-0.212787	0.095412	3.999977E+9
2346.93	1.4	3.848596	-0.670817	0.00013	0	0.000442	-0.212787	0.095781	3.999978E+9
2502.52	1.5	3.879632	-0.677178	6.1E-5	0	0.000164	-0.212787	0.095812	3.999979E+9
2657.27	1.6	3.911048	-0.683188	0.00052	0	-6.2E-5	-0.212787	0.096078	3.99998E+9
2811.14	1.7	3.915001	-0.683689	0.000545	0	0.000349	-0.212787	0.095995	3.999981E+9
2964.07	1.8	3.918133	-0.684231	-3.9E-5	0	-0.0004	-0.212787	0.095691	3.999982E+9
3116	1.9	3.917311	-0.683611	-0.000359	0	0.000505	-0.212787	0.09547	3.999983E+9
3266.89	2	3.917376	-0.683406	0.000469	0	-0.000217	-0.212787	0.09522	3.999984E+9
3712.69	2.3	3.91685	-0.682987	7.8E-5	0	0.000705	-0.212787	0.095214	3.999985E+9
4147.09	2.6	3.917256	-0.683006	-0.000667	0	4.3E-5	-0.212787	0.096128	3.999986E+9
4568.59	2.9	3.916473	-0.681622	0.00049	0	-0.001018	-0.212787	0.0953	3.999987E+9
4975.74	3.2	3.917201	-0.681795	0.000513	0	-0.000338	-0.212787	0.095333	3.999988E+9
5367.05	3.5	3.915807	-0.68298	-0.001003	0	-0.000274	-0.212787	0.095292	3.999989E+9
5741.05	3.8	3.912997	-0.681275	-0.000234	0	0.000673	-0.212787	0.095436	3.99999E+9
6096.26	4.1	3.913068	-0.68132	-0.000753	0	0.000801	-0.212787	0.0953	3.999991E+9
