31/05/2022	19:22

Si\Ta3\(Co90Tb10)100nm\Pt3-20220531_APEJ4

Field	Kepco	Channel A	Channel B	Agilent	0	RF out	Monitor+	Monitor-	Time
6096.26	4.1	3.391539	-0.513552	0.005096	0	0.004083	-0.212787	0.099452	4.001075E+9
5741.05	3.8	3.396442	-0.513065	0.004479	0	0.004249	-0.212787	0.099884	4.001075E+9
5367.05	3.5	3.399301	-0.512932	0.004432	0	0.004135	-0.212787	0.100338	4.001076E+9
4975.74	3.2	3.400522	-0.513387	0.004417	0	0.003933	-0.212787	0.099369	4.001077E+9
4568.59	2.9	3.401042	-0.515229	0.004392	0	0.004492	-0.212787	0.100357	4.001078E+9
4147.09	2.6	3.403891	-0.51519	0.004528	0	0.004351	-0.212787	0.099666	4.001079E+9
3712.69	2.3	3.405162	-0.514862	0.003882	0	0.003583	-0.212787	0.099671	4.00108E+9
3266.89	2	3.406513	-0.514176	0.003093	0	0.004166	-0.212787	0.100219	4.001081E+9
3116	1.9	3.405175	-0.515492	0.004117	0	0.003863	-0.212787	0.099984	4.001082E+9
2964.07	1.8	3.406728	-0.515141	0.003734	0	0.00466	-0.212787	0.099852	4.001083E+9
2811.14	1.7	3.407475	-0.513107	0.004191	0	0.003805	-0.212787	0.100443	4.001084E+9
2657.27	1.6	3.407312	-0.514098	0.004518	0	0.004474	-0.212787	0.099298	4.001085E+9
2502.52	1.5	3.406448	-0.514163	0.003771	0	0.003921	-0.212787	0.099944	4.001086E+9
2346.93	1.4	3.408209	-0.51453	0.004538	0	0.004207	-0.212787	0.099872	4.001087E+9
2190.57	1.3	3.407104	-0.514533	0.003781	0	0.004314	-0.212787	0.099544	4.001088E+9
2033.48	1.2	3.406081	-0.516713	0.00362	0	0.004179	-0.212787	0.100173	4.001089E+9
1875.73	1.1	3.408157	-0.516431	0.003751	0	0.003713	-0.212787	0.100339	4.00109E+9
1717.37	1	3.408154	-0.515511	0.003763	0	0.004298	-0.212787	0.099361	4.001091E+9
1558.44	0.9	3.410834	-0.515508	0.003722	0	0.003883	-0.212787	0.100427	4.001092E+9
1399.02	0.8	3.409518	-0.516044	0.003623	0	0.003865	-0.212787	0.099632	4.001093E+9
1239.14	0.7	3.409772	-0.514764	0.004432	0	0.003686	-0.212787	0.100408	4.001094E+9
1078.87	0.6	3.409814	-0.515671	0.004019	0	0.003814	-0.212787	0.100051	4.001095E+9
918.26	0.5	3.410168	-0.515186	0.004389	0	0.004593	-0.212787	0.099571	4.001096E+9
757.37	0.4	3.410561	-0.513097	0.005107	0	0.00405	-0.212787	0.099842	4.001097E+9
596.24	0.3	3.411013	-0.515125	0.003637	0	0.003709	-0.212787	0.100002	4.001098E+9
434.94	0.2	3.4088	-0.513419	0.004403	0	0.004243	-0.212787	0.099328	4.001099E+9
273.52	0.1	3.411507	-0.51209	0.004546	0	0.004196	-0.212787	0.100504	4.0011E+9
112.03	0	3.412065	-0.514394	0.004501	0	0.003791	-0.212787	0.099553	4.001101E+9
-49.47	-0.1	3.410529	-0.512617	0.003912	0	0.004167	-0.212787	0.100464	4.001102E+9
-210.93	-0.2	3.411438	-0.514819	0.004304	0	0.00434	-0.212787	0.09949	4.001103E+9
-372.3	-0.3	3.411386	-0.513455	0.003402	0	0.004339	-0.212787	0.100448	4.001104E+9
-533.51	-0.4	3.411994	-0.515303	0.004467	0	0.00432	-0.212787	0.099493	4.001105E+9
-694.51	-0.5	3.409746	-0.514403	0.003667	0	0.003787	-0.212787	0.099309	4.001106E+9
-855.25	-0.6	-0.191138	0.05885	-0.000328	0	-0.000362	-0.212787	0.099562	4.001107E+9
-1015.68	-0.7	-1.002321	0.186395	-0.001445	0	-0.001565	-0.212787	0.099416	4.001108E+9
-1175.74	-0.8	-1.520047	0.266699	-0.002576	0	-0.002022	-0.212787	0.099806	4.001109E+9
-1335.37	-0.9	-1.895595	0.328481	-0.002147	0	-0.002376	-0.212787	0.100369	4.00111E+9
-1494.53	-1	-2.182753	0.373312	-0.003054	0	-0.002998	-0.212787	0.100505	4.001111E+9
-1653.15	-1.1	-2.418132	0.410657	-0.002633	0	-0.003381	-0.212787	0.099517	4.001112E+9
-1811.18	-1.2	-2.585858	0.436416	-0.002744	0	-0.003289	-0.212787	0.100539	4.001113E+9
-1968.57	-1.3	-2.714297	0.456591	-0.003536	0	-0.003503	-0.212787	0.100546	4.001114E+9
-2125.26	-1.4	-2.809129	0.471958	-0.002894	0	-0.003377	-0.212787	0.099485	4.001115E+9
-2281.19	-1.5	-2.875278	0.48151	-0.00329	0	-0.003584	-0.212787	0.099697	4.001116E+9
-2436.33	-1.6	-2.927308	0.489368	-0.003289	0	-0.003572	-0.212787	0.099814	4.001117E+9
-2590.6	-1.7	-2.971092	0.495541	-0.003287	0	-0.003472	-0.212787	0.099581	4.001118E+9
-2743.95	-1.8	-3.015464	0.503936	-0.003893	0	-0.003607	-0.212787	0.099705	4.001119E+9
-2896.33	-1.9	-3.058329	0.509531	-0.003187	0	-0.003476	-0.212787	0.100183	4.00112E+9
-3047.69	-2	-3.08326	0.5139	-0.003583	0	-0.00376	-0.212787	0.100148	4.001121E+9
-3495.06	-2.3	-3.097948	0.51569	-0.002708	0	-0.00381	-0.212787	0.100434	4.001122E+9
-3931.24	-2.6	-3.098247	0.516548	-0.003338	0	-0.003605	-0.212787	0.099744	4.001123E+9
-4354.75	-2.9	-3.099059	0.517795	-0.003222	0	-0.003795	-0.212787	0.099959	4.001124E+9
-4764.12	-3.2	-3.097337	0.516515	-0.003084	0	-0.003502	-0.212787	0.100438	4.001125E+9
-5157.87	-3.5	-3.099572	0.518289	-0.002974	0	-0.003578	-0.212787	0.099828	4.001126E+9
-5534.53	-3.8	-3.097724	0.516915	-0.003416	0	-0.003399	-0.212787	0.099852	4.001127E+9
-5892.62	-4.1	-3.095108	0.517055	-0.003198	0	-0.003441	-0.212787	0.10032	4.001128E+9
-5534.53	-3.8	-3.100365	0.517795	-0.003212	0	-0.003406	-0.212787	0.100437	4.001129E+9
-5157.87	-3.5	-3.104387	0.51661	-0.003531	0	-0.00375	-0.212787	0.099603	4.00113E+9
-4764.12	-3.2	-3.10656	0.516948	-0.003492	0	-0.003454	-0.212787	0.099768	4.001131E+9
-4354.75	-2.9	-3.108227	0.517347	-0.003503	0	-0.003567	-0.212787	0.099543	4.001132E+9
-3931.24	-2.6	-3.109046	0.517318	-0.003159	0	-0.003431	-0.212787	0.0996	4.001133E+9
-3495.06	-2.3	-3.111629	0.517425	-0.003501	0	-0.003748	-0.212787	0.099733	4.001134E+9
-3047.69	-2	-3.1113	0.518215	-0.003924	0	-0.003551	-0.212787	0.099724	4.001135E+9
-2896.33	-1.9	-3.1126	0.518293	-0.00334	0	-0.003901	-0.212787	0.099906	4.001136E+9
-2743.95	-1.8	-3.114419	0.518715	-0.0035	0	-0.003858	-0.212787	0.099734	4.001137E+9
-2590.6	-1.7	-3.114819	0.517789	-0.003574	0	-0.003715	-0.212787	0.100175	4.001138E+9
-2436.33	-1.6	-3.113474	0.517808	-0.003379	0	-0.003659	-0.212787	0.099607	4.001139E+9
-2281.19	-1.5	-3.11528	0.518322	-0.003755	0	-0.003423	-0.212787	0.100461	4.00114E+9
-2125.26	-1.4	-3.116027	0.51749	-0.003573	0	-0.003902	-0.212787	0.100022	4.001141E+9
-1968.57	-1.3	-3.116174	0.519153	-0.003677	0	-0.003821	-0.212787	0.100216	4.001142E+9
-1811.18	-1.2	-3.115985	0.519495	-0.003814	0	-0.003761	-0.212787	0.09944	4.001143E+9
-1653.15	-1.1	-3.117359	0.517799	-0.003515	0	-0.003584	-0.212787	0.10009	4.001144E+9
-1494.53	-1	-3.116577	0.516619	-0.003432	0	-0.003665	-0.212787	0.100288	4.001145E+9
-1335.37	-0.9	-3.115699	0.51825	-0.003575	0	-0.003597	-0.212787	0.1	4.001146E+9
-1175.74	-0.8	-3.117353	0.517396	-0.003832	0	-0.004328	-0.212787	0.099868	4.001147E+9
-1015.68	-0.7	-3.117792	0.520037	-0.003427	0	-0.003657	-0.212787	0.099886	4.001148E+9
-855.25	-0.6	-3.11874	0.518166	-0.003837	0	-0.003924	-0.212787	0.099961	4.001149E+9
-694.51	-0.5	-3.117902	0.518663	-0.003496	0	-0.003641	-0.212787	0.099569	4.00115E+9
-533.51	-0.4	-3.11912	0.518624	-0.003782	0	-0.003613	-0.212787	0.100223	4.001151E+9
-372.3	-0.3	-3.11735	0.519134	-0.003209	0	-0.003978	-0.212787	0.099457	4.001152E+9
-210.93	-0.2	-3.117353	0.51902	-0.003456	0	-0.003741	-0.212787	0.100176	4.001153E+9
-49.47	-0.1	-3.116092	0.519173	-0.00384	0	-0.00392	-0.212787	0.099966	4.001154E+9
112.03	0	-3.117831	0.519085	-0.003266	0	-0.00356	-0.212787	0.099502	4.001155E+9
273.52	0.1	0.016986	0.023	0.000381	0	0.000109	-0.212787	0.099956	4.001156E+9
434.94	0.2	1.055849	-0.141942	0.001632	0	0.001028	-0.212787	0.100383	4.001157E+9
596.24	0.3	1.639701	-0.231751	0.002006	0	0.001689	-0.212787	0.099272	4.001158E+9
757.37	0.4	2.067539	-0.300626	0.002747	0	0.002403	-0.212787	0.099416	4.001159E+9
918.26	0.5	2.38948	-0.349092	0.003115	0	0.00254	-0.212787	0.100467	4.00116E+9
1078.87	0.6	2.641184	-0.38977	0.002994	0	0.002843	-0.212787	0.099522	4.001161E+9
1239.14	0.7	2.825584	-0.418479	0.003567	0	0.00301	-0.212787	0.100286	4.001162E+9
1399.02	0.8	2.965929	-0.440545	0.003794	0	0.003242	-0.212787	0.099275	4.001163E+9
1558.44	0.9	3.062701	-0.457121	0.003727	0	0.003681	-0.212787	0.100224	4.001164E+9
1717.37	1	3.135656	-0.466477	0.003454	0	0.00363	-0.212787	0.099564	4.001165E+9
1875.73	1.1	3.187176	-0.47446	0.003737	0	0.003771	-0.212787	0.099546	4.001166E+9
2033.48	1.2	3.235726	-0.481386	0.003753	0	0.003173	-0.212787	0.099589	4.001167E+9
2190.57	1.3	3.277967	-0.487952	0.003596	0	0.003348	-0.212787	0.100356	4.001168E+9
2346.93	1.4	3.327622	-0.496382	0.003385	0	0.003448	-0.212787	0.099259	4.001169E+9
2502.52	1.5	3.364457	-0.502032	0.003424	0	0.003638	-0.212787	0.100242	4.00117E+9
2657.27	1.6	3.37793	-0.50416	0.003329	0	0.003737	-0.212787	0.099548	4.001171E+9
2811.14	1.7	3.386397	-0.503718	0.003402	0	0.003806	-0.212787	0.100335	4.001172E+9
2964.07	1.8	3.386942	-0.505742	0.003819	0	0.003376	-0.212787	0.10022	4.001173E+9
3116	1.9	3.389938	-0.504407	0.003789	0	0.003758	-0.212787	0.099345	4.001174E+9
3266.89	2	3.391403	-0.50556	0.003886	0	0.004182	-0.212787	0.099307	4.001175E+9
3712.69	2.3	3.391832	-0.506126	0.004452	0	0.003694	-0.212787	0.100246	4.001176E+9
4147.09	2.6	3.391484	-0.507038	0.004187	0	0.004271	-0.212787	0.100068	4.001177E+9
4568.59	2.9	3.391046	-0.506064	0.003887	0	0.004484	-0.212787	0.099288	4.001178E+9
4975.74	3.2	3.389964	-0.505706	0.002952	0	0.003401	-0.212787	0.100089	4.001179E+9
5367.05	3.5	3.389057	-0.503179	0.00409	0	0.003535	-0.212787	0.099965	4.00118E+9
5741.05	3.8	3.385688	-0.503894	0.003282	0	0.003892	-0.212787	0.099633	4.001181E+9
6096.26	4.1	3.384207	-0.503562	0.003639	0	0.00416	-0.212787	0.099477	4.001182E+9
