31/05/2022	18:53

Si\Ta3\(Co90Tb10)50nm\Pt3-20220531_APEJ2

Field	Kepco	Channel A	Channel B	Agilent	0	RF out	Monitor+	Monitor-	Time
6096.26	4.1	3.05968	-0.606185	0.004073	0	0.005078	-0.212787	0.098412	3.999301E+9
5741.05	3.8	3.062617	-0.607897	0.005121	0	0.004747	-0.212787	0.098427	3.999302E+9
5367.05	3.5	3.067344	-0.606111	0.005285	0	0.003553	-0.212787	0.098421	3.999303E+9
4975.74	3.2	3.066496	-0.607322	0.004488	0	0.004428	-0.212787	0.098702	3.999304E+9
4568.59	2.9	3.070388	-0.607335	0.003624	0	0.004283	-0.212787	0.098341	3.999305E+9
4147.09	2.6	3.070878	-0.6091	0.004594	0	0.004691	-0.212787	0.098399	3.999306E+9
3712.69	2.3	3.070836	-0.60791	0.004904	0	0.004886	-0.212787	0.098423	3.999307E+9
3266.89	2	3.072123	-0.606903	0.004866	0	0.003958	-0.212787	0.098428	3.999308E+9
3116	1.9	3.072659	-0.606894	0.004404	0	0.004184	-0.212787	0.098532	3.999309E+9
2964.07	1.8	3.07401	-0.606101	0.004569	0	0.003688	-0.212787	0.098503	3.99931E+9
2811.14	1.7	3.074429	-0.610561	0.004356	0	0.004651	-0.212787	0.098422	3.999311E+9
2657.27	1.6	3.074023	-0.607881	0.005062	0	0.005048	-0.212787	0.098364	3.999312E+9
2502.52	1.5	3.073507	-0.6092	0.004041	0	0.003912	-0.212787	0.098499	3.999313E+9
2346.93	1.4	3.076564	-0.608732	0.004743	0	0.004477	-0.212787	0.098598	3.999314E+9
2190.57	1.3	3.073864	-0.609675	0.004411	0	0.004154	-0.212787	0.098323	3.999315E+9
2033.48	1.2	3.076528	-0.610142	0.00414	0	0.003791	-0.212787	0.098316	3.999316E+9
1875.73	1.1	3.077353	-0.609986	0.004114	0	0.004727	-0.212787	0.098597	3.999317E+9
1717.37	1	3.075037	-0.608408	0.00328	0	0.003931	-0.212787	0.098392	3.999318E+9
1558.44	0.9	3.077425	-0.609064	0.004973	0	0.003954	-0.212787	0.09831	3.999319E+9
1399.02	0.8	3.076674	-0.607732	0.004207	0	0.004132	-0.212787	0.098393	3.99932E+9
1239.14	0.7	3.077249	-0.608658	0.003577	0	0.003977	-0.212787	0.098288	3.999321E+9
1078.87	0.6	3.075859	-0.607011	0.003424	0	0.004539	-0.212787	0.098513	3.999322E+9
918.26	0.5	3.077639	-0.60819	0.004505	0	0.00409	-0.212787	0.09834	3.999323E+9
757.37	0.4	3.077815	-0.606975	0.004783	0	0.004312	-0.212787	0.098352	3.999324E+9
596.24	0.3	3.07812	-0.60791	0.004298	0	0.004243	-0.212787	0.098378	3.999325E+9
434.94	0.2	3.075836	-0.606647	0.003876	0	0.00329	-0.212787	0.098305	3.999326E+9
273.52	0.1	3.07543	-0.605831	0.003962	0	0.004151	-0.212787	0.098354	3.999327E+9
112.03	0	3.075839	-0.60689	0.003727	0	0.004684	-0.212787	0.098575	3.999328E+9
-49.47	-0.1	3.07415	-0.606949	0.004103	0	0.004486	-0.212787	0.098493	3.999329E+9
-210.93	-0.2	3.074134	-0.606224	0.003798	0	0.003597	-0.212787	0.098667	3.99933E+9
-372.3	-0.3	3.060099	-0.604785	0.003829	0	0.003101	-0.212787	0.09843	3.999331E+9
-533.51	-0.4	0.928207	-0.162035	0.00076	0	0.001475	-0.212787	0.09867	3.999332E+9
-694.51	-0.5	-0.275818	0.085591	0.000259	0	0.000925	-0.212787	0.098388	3.999333E+9
-855.25	-0.6	-0.908915	0.212889	-0.000917	0	-0.00037	-0.212787	0.098748	3.999334E+9
-1015.68	-0.7	-1.383665	0.311922	-0.000897	0	-0.001261	-0.212787	0.098445	3.999335E+9
-1175.74	-0.8	-1.761595	0.391612	-0.00152	0	-0.00162	-0.212787	0.098396	3.999336E+9
-1335.37	-0.9	-2.085897	0.455217	-0.002005	0	-0.001801	-0.212787	0.09837	3.999337E+9
-1494.53	-1	-2.34688	0.510304	-0.002917	0	-0.001613	-0.212787	0.098627	3.999338E+9
-1653.15	-1.1	-2.546496	0.553253	-0.002214	0	-0.002437	-0.212787	0.098548	3.999339E+9
-1811.18	-1.2	-2.687361	0.582362	-0.002917	0	-0.002902	-0.212787	0.098747	3.99934E+9
-1968.57	-1.3	-2.788499	0.601351	-0.002053	0	-0.002906	-0.212787	0.098621	3.999341E+9
-2125.26	-1.4	-2.84687	0.612738	-0.001917	0	-0.00317	-0.212787	0.098567	3.999342E+9
-2281.19	-1.5	-2.886802	0.621536	-0.003789	0	-0.002353	-0.212787	0.098683	3.999343E+9
-2436.33	-1.6	-2.921794	0.62856	-0.003267	0	-0.002422	-0.212787	0.098428	3.999344E+9
-2590.6	-1.7	-2.951144	0.633859	-0.003018	0	-0.002321	-0.212787	0.09879	3.999345E+9
-2743.95	-1.8	-2.982986	0.637735	-0.002716	0	-0.003747	-0.212787	0.098434	3.999346E+9
-2896.33	-1.9	-3.011124	0.645135	-0.004176	0	-0.003251	-0.212787	0.098755	3.999347E+9
-3047.69	-2	-3.02985	0.64778	-0.002891	0	-0.003557	-0.212787	0.098415	3.999348E+9
-3495.06	-2.3	-3.035122	0.649076	-0.003723	0	-0.00265	-0.212787	0.098561	3.999349E+9
-3931.24	-2.6	-3.036467	0.647822	-0.0032	0	-0.002832	-0.212787	0.098393	3.99935E+9
-4354.75	-2.9	-3.03469	0.649067	-0.003118	0	-0.003545	-0.212787	0.098494	3.999351E+9
-4764.12	-3.2	-3.03379	0.648891	-0.003462	0	-0.003456	-0.212787	0.098575	3.999352E+9
-5157.87	-3.5	-3.031178	0.649482	-0.002573	0	-0.003062	-0.212787	0.098788	3.999353E+9
-5534.53	-3.8	-3.029781	0.649115	-0.003848	0	-0.003373	-0.212787	0.098717	3.999354E+9
-5892.62	-4.1	-3.030636	0.64908	-0.003072	0	-0.002665	-0.212787	0.098549	3.999355E+9
-5534.53	-3.8	-3.034963	0.650353	-0.002322	0	-0.003404	-0.212787	0.098544	3.999356E+9
-5157.87	-3.5	-3.03892	0.650015	-0.002716	0	-0.003213	-0.212787	0.098488	3.999357E+9
-4764.12	-3.2	-3.039401	0.651136	-0.003099	0	-0.003168	-0.212787	0.098563	3.999358E+9
-4354.75	-2.9	-3.040191	0.647458	-0.002354	0	-0.002454	-0.212787	0.098833	3.999359E+9
-3931.24	-2.6	-3.042436	0.651984	-0.002761	0	-0.002072	-0.212787	0.098698	3.99936E+9
-3495.06	-2.3	-3.043339	0.65151	-0.002982	0	-0.003469	-0.212787	0.098539	3.999361E+9
-3047.69	-2	-3.044508	0.651026	-0.002191	0	-0.002807	-0.212787	0.098526	3.999362E+9
-2896.33	-1.9	-3.045139	0.651458	-0.002992	0	-0.003543	-0.212787	0.098501	3.999363E+9
-2743.95	-1.8	-3.046146	0.650564	-0.003105	0	-0.002736	-0.212787	0.098862	3.999364E+9
-2590.6	-1.7	-3.04648	0.651373	-0.00269	0	-0.003145	-0.212787	0.098495	3.999365E+9
-2436.33	-1.6	-3.04804	0.650814	-0.001996	0	-0.00332	-0.212787	0.098802	3.999366E+9
-2281.19	-1.5	-3.047299	0.651406	-0.003093	0	-0.00358	-0.212787	0.098626	3.999367E+9
-2125.26	-1.4	-3.049044	0.649219	-0.00356	0	-0.002998	-0.212787	0.09878	3.999368E+9
-1968.57	-1.3	-3.048101	0.648365	-0.003085	0	-0.003158	-0.212787	0.098599	3.999369E+9
-1811.18	-1.2	-3.048121	0.651354	-0.002762	0	-0.00258	-0.212787	0.098547	3.99937E+9
-1653.15	-1.1	-3.049385	0.650931	-0.002071	0	-0.002887	-0.212787	0.098508	3.999371E+9
-1494.53	-1	-3.047984	0.648683	-0.003016	0	-0.003179	-0.212787	0.098601	3.999372E+9
-1335.37	-0.9	-3.04801	0.649963	-0.002842	0	-0.003634	-0.212787	0.098806	3.999373E+9
-1175.74	-0.8	-3.048858	0.649287	-0.003401	0	-0.00317	-0.212787	0.098616	3.999374E+9
-1015.68	-0.7	-3.047137	0.64996	-0.003314	0	-0.002996	-0.212787	0.098778	3.999375E+9
-855.25	-0.6	-3.047055	0.651019	-0.00337	0	-0.002681	-0.212787	0.098645	3.999376E+9
-694.51	-0.5	-3.046808	0.649144	-0.003093	0	-0.002852	-0.212787	0.098599	3.999377E+9
-533.51	-0.4	-3.044352	0.647777	-0.00158	0	-0.003147	-0.212787	0.098475	3.999378E+9
-372.3	-0.3	-3.045707	0.650363	-0.002675	0	-0.003038	-0.212787	0.098685	3.999379E+9
-210.93	-0.2	-3.041409	0.647702	-0.004099	0	-0.002366	-0.212787	0.098895	3.99938E+9
-49.47	-0.1	-2.195492	0.465106	-0.001545	0	-0.000506	-0.212787	0.098461	3.999381E+9
112.03	0	-0.086124	0.041167	0.001539	0	0.000399	-0.212787	0.098475	3.999382E+9
273.52	0.1	0.700121	-0.119668	0.003009	0	0.001107	-0.212787	0.098698	3.999383E+9
434.94	0.2	1.229559	-0.228636	0.002388	0	0.001656	-0.212787	0.098726	3.999384E+9
596.24	0.3	1.648083	-0.311747	0.002532	0	0.003158	-0.212787	0.098454	3.999385E+9
757.37	0.4	1.993502	-0.381005	0.003336	0	0.002909	-0.212787	0.098396	3.999386E+9
918.26	0.5	2.278744	-0.438284	0.004956	0	0.003904	-0.212787	0.098675	3.999387E+9
1078.87	0.6	2.50132	-0.484001	0.003995	0	0.004153	-0.212787	0.098582	3.999388E+9
1239.14	0.7	2.671164	-0.517116	0.004603	0	0.003264	-0.212787	0.098567	3.999389E+9
1399.02	0.8	2.787163	-0.542177	0.004953	0	0.004212	-0.212787	0.098634	3.99939E+9
1558.44	0.9	2.864339	-0.556531	0.004665	0	0.004711	-0.212787	0.098406	3.999391E+9
1717.37	1	2.917187	-0.568902	0.004291	0	0.00464	-0.212787	0.098436	3.999392E+9
1875.73	1.1	2.959087	-0.576638	0.005217	0	0.004417	-0.212787	0.098411	3.999393E+9
2033.48	1.2	2.994171	-0.584503	0.005459	0	0.004329	-0.212787	0.098438	3.999394E+9
2190.57	1.3	3.018709	-0.586338	0.005046	0	0.004301	-0.212787	0.098443	3.999395E+9
2346.93	1.4	3.045911	-0.593466	0.004313	0	0.004283	-0.212787	0.098445	3.999396E+9
2502.52	1.5	3.062555	-0.594659	0.005053	0	0.005241	-0.212787	0.098421	3.999397E+9
2657.27	1.6	3.066428	-0.59997	0.00467	0	0.005153	-0.212787	0.098366	3.999398E+9
2811.14	1.7	3.06955	-0.597345	0.005554	0	0.004927	-0.212787	0.098432	3.999399E+9
2964.07	1.8	3.068656	-0.597768	0.004651	0	0.004499	-0.212787	0.09844	3.9994E+9
3116	1.9	3.071259	-0.597891	0.0048	0	0.004328	-0.212787	0.098414	3.999401E+9
3266.89	2	3.068497	-0.597355	0.005382	0	0.004911	-0.212787	0.09836	3.999402E+9
3712.69	2.3	3.068039	-0.596442	0.003724	0	0.00525	-0.212787	0.098382	3.999403E+9
4147.09	2.6	3.067623	-0.596887	0.005793	0	0.004633	-0.212787	0.098731	3.999404E+9
4568.59	2.9	3.067175	-0.596416	0.005485	0	0.004323	-0.212787	0.098383	3.999405E+9
4975.74	3.2	3.065804	-0.596527	0.005032	0	0.004412	-0.212787	0.09829	3.999406E+9
5367.05	3.5	3.066925	-0.595169	0.004177	0	0.004812	-0.212787	0.098337	3.999407E+9
5741.05	3.8	3.061996	-0.595604	0.004169	0	0.004649	-0.212787	0.098276	3.999408E+9
6096.26	4.1	3.063234	-0.593905	0.004761	0	0.005049	-0.212787	0.098345	3.999409E+9
