31/05/2022	18:34

Si\Ta3\(Co90Tb10)75\Pt3-20220531_APEJ1

Field	Kepco	Channel A	Channel B	Agilent	0	RF out	Monitor+	Monitor-	Time
6096.26	4.1	2.366566	-0.661951	-0.010634	0	-0.010896	-0.212787	0.103877	3.99819E+9
5741.05	3.8	2.366663	-0.663497	-0.010736	0	-0.011045	-0.212787	0.104521	3.998191E+9
5367.05	3.5	2.369071	-0.664514	-0.010991	0	-0.0108	-0.212787	0.104556	3.998192E+9
4975.74	3.2	2.37165	-0.663468	-0.011111	0	-0.010571	-0.212787	0.104574	3.998193E+9
4568.59	2.9	2.374457	-0.665245	-0.011131	0	-0.010904	-0.212787	0.103288	3.998194E+9
4147.09	2.6	2.374665	-0.663101	-0.010477	0	-0.010938	-0.212787	0.103377	3.998195E+9
3712.69	2.3	2.37422	-0.664089	-0.010951	0	-0.010894	-0.212787	0.103386	3.998196E+9
3266.89	2	2.375438	-0.664976	-0.011003	0	-0.011391	-0.212787	0.103455	3.998197E+9
3116	1.9	2.375896	-0.663845	-0.011121	0	-0.011001	-0.212787	0.103559	3.998198E+9
2964.07	1.8	2.376822	-0.663929	-0.01056	0	-0.011553	-0.212787	0.104297	3.998199E+9
2811.14	1.7	2.3764	-0.661915	-0.010958	0	-0.011517	-0.212787	0.104265	3.9982E+9
2657.27	1.6	2.377589	-0.665739	-0.011442	0	-0.010868	-0.212787	0.103996	3.998201E+9
2502.52	1.5	2.377329	-0.665453	-0.01116	0	-0.011545	-0.212787	0.104548	3.998202E+9
2346.93	1.4	2.378275	-0.663705	-0.011483	0	-0.011691	-0.212787	0.10345	3.998203E+9
2190.57	1.3	2.378197	-0.664963	-0.011168	0	-0.011359	-0.212787	0.103483	3.998204E+9
2033.48	1.2	2.378632	-0.661811	-0.011599	0	-0.011781	-0.212787	0.103476	3.998205E+9
1875.73	1.1	2.377404	-0.663215	-0.011446	0	-0.011595	-0.212787	0.103294	3.998206E+9
1717.37	1	2.377219	-0.663328	-0.01112	0	-0.01162	-0.212787	0.104195	3.998207E+9
1558.44	0.9	2.377303	-0.665853	-0.011831	0	-0.011771	-0.212787	0.103407	3.998208E+9
1399.02	0.8	2.377667	-0.662188	-0.011254	0	-0.011412	-0.212787	0.104104	3.998209E+9
1239.14	0.7	2.379041	-0.660989	-0.011773	0	-0.012221	-0.212787	0.103991	3.99821E+9
1078.87	0.6	2.377631	-0.6638	-0.011754	0	-0.011658	-0.212787	0.103904	3.998211E+9
918.26	0.5	2.378957	-0.661558	-0.011607	0	-0.011783	-0.212787	0.103691	3.998212E+9
757.37	0.4	2.378067	-0.662997	-0.01174	0	-0.011632	-0.212787	0.103418	3.998213E+9
596.24	0.3	2.379587	-0.662243	-0.012	0	-0.011606	-0.212787	0.103555	3.998214E+9
434.94	0.2	2.378401	-0.662198	-0.011657	0	-0.011856	-0.212787	0.104057	3.998215E+9
273.52	0.1	2.381423	-0.66261	-0.011606	0	-0.011811	-0.212787	0.104249	3.998216E+9
112.03	0	2.380669	-0.661905	-0.011401	0	-0.012395	-0.212787	0.103583	3.998217E+9
-49.47	-0.1	2.380455	-0.660158	-0.011787	0	-0.011998	-0.212787	0.103903	3.998218E+9
-210.93	-0.2	2.381134	-0.660015	-0.011538	0	-0.011811	-0.212787	0.103231	3.998219E+9
-372.3	-0.3	2.38013	-0.661529	-0.012072	0	-0.012419	-0.212787	0.103582	3.99822E+9
-533.51	-0.4	2.381546	-0.662071	-0.012003	0	-0.011943	-0.212787	0.103651	3.998221E+9
-694.51	-0.5	2.377635	-0.661564	-0.01169	0	-0.012148	-0.212787	0.104522	3.998222E+9
-855.25	-0.6	-1.323842	0.314612	-0.01675	0	-0.016045	-0.212787	0.103903	3.998223E+9
-1015.68	-0.7	-1.894692	0.462283	-0.017533	0	-0.016812	-0.212787	0.10448	3.998224E+9
-1175.74	-0.8	-2.156458	0.532642	-0.016907	0	-0.017181	-0.212787	0.103428	3.998225E+9
-1335.37	-0.9	-2.187214	0.53785	-0.017149	0	-0.01713	-0.212787	0.103831	3.998226E+9
-1494.53	-1	-2.187659	0.540388	-0.017617	0	-0.017498	-0.212787	0.103808	3.998227E+9
-1653.15	-1.1	-2.188959	0.538666	-0.01836	0	-0.017417	-0.212787	0.103626	3.998228E+9
-1811.18	-1.2	-2.188998	0.53772	-0.01815	0	-0.017473	-0.212787	0.103343	3.998229E+9
-1968.57	-1.3	-2.187786	0.537243	-0.017422	0	-0.018092	-0.212787	0.103872	3.99823E+9
-2125.26	-1.4	-2.187812	0.537779	-0.017748	0	-0.018174	-0.212787	0.10408	3.998231E+9
-2281.19	-1.5	-2.187	0.536879	-0.017953	0	-0.017711	-0.212787	0.103387	3.998232E+9
-2436.33	-1.6	-2.186009	0.539111	-0.017934	0	-0.018043	-0.212787	0.104108	3.998233E+9
-2590.6	-1.7	-2.186935	0.536473	-0.017901	0	-0.018255	-0.212787	0.104276	3.998234E+9
-2743.95	-1.8	-2.187822	0.539634	-0.018333	0	-0.017628	-0.212787	0.103387	3.998235E+9
-2896.33	-1.9	-2.185681	0.535521	-0.018105	0	-0.017632	-0.212787	0.103609	3.998236E+9
-3047.69	-2	-2.184121	0.535583	-0.018689	0	-0.017568	-0.212787	0.103826	3.998237E+9
-3495.06	-2.3	-2.18557	0.537876	-0.018426	0	-0.017658	-0.212787	0.103621	3.998238E+9
-3931.24	-2.6	-2.183199	0.535521	-0.018601	0	-0.017178	-0.212787	0.104374	3.998239E+9
-4354.75	-2.9	-2.181197	0.535973	-0.018054	0	-0.017602	-0.212787	0.103643	3.99824E+9
-4764.12	-3.2	-2.1788	0.533188	-0.017724	0	-0.017694	-0.212787	0.103341	3.998241E+9
-5157.87	-3.5	-2.175421	0.533084	-0.017683	0	-0.017715	-0.212787	0.103273	3.998242E+9
-5534.53	-3.8	-2.176649	0.534238	-0.016854	0	-0.017317	-0.212787	0.104447	3.998243E+9
-5892.62	-4.1	-2.173647	0.531993	-0.017339	0	-0.016785	-0.212787	0.103332	3.998244E+9
-5534.53	-3.8	-2.177474	0.534394	-0.017462	0	-0.017169	-0.212787	0.103322	3.998245E+9
-5157.87	-3.5	-2.180564	0.534179	-0.017539	0	-0.017829	-0.212787	0.104394	3.998246E+9
-4764.12	-3.2	-2.185798	0.534608	-0.016818	0	-0.017776	-0.212787	0.103251	3.998247E+9
-4354.75	-2.9	-2.188488	0.53234	-0.017703	0	-0.018062	-0.212787	0.103909	3.998248E+9
-3931.24	-2.6	-2.186727	0.534598	-0.017859	0	-0.017967	-0.212787	0.103291	3.998249E+9
-3495.06	-2.3	-2.189056	0.533783	-0.018218	0	-0.017527	-0.212787	0.103369	3.99825E+9
-3047.69	-2	-2.188874	0.535693	-0.018027	0	-0.018122	-0.212787	0.103824	3.998251E+9
-2896.33	-1.9	-2.191525	0.537909	-0.017529	0	-0.017784	-0.212787	0.103626	3.998252E+9
-2743.95	-1.8	-2.191941	0.534507	-0.018153	0	-0.018285	-0.212787	0.10328	3.998253E+9
-2590.6	-1.7	-2.192484	0.535514	-0.018774	0	-0.017759	-0.212787	0.104114	3.998254E+9
-2436.33	-1.6	-2.193575	0.534907	-0.017959	0	-0.017773	-0.212787	0.104312	3.998255E+9
-2281.19	-1.5	-2.195713	0.535979	-0.018152	0	-0.018157	-0.212787	0.103259	3.998256E+9
-2125.26	-1.4	-2.193666	0.535875	-0.018236	0	-0.018354	-0.212787	0.103864	3.998257E+9
-1968.57	-1.3	-2.1934	0.53823	-0.017738	0	-0.018146	-0.212787	0.103632	3.998258E+9
-1811.18	-1.2	-2.195667	0.535479	-0.017811	0	-0.018457	-0.212787	0.103445	3.998259E+9
-1653.15	-1.1	-2.192805	0.535462	-0.018279	0	-0.018325	-0.212787	0.104028	3.99826E+9
-1494.53	-1	-2.19441	0.535037	-0.018514	0	-0.01807	-0.212787	0.103351	3.998261E+9
-1335.37	-0.9	-2.194806	0.53439	-0.018422	0	-0.018144	-0.212787	0.104055	3.998262E+9
-1175.74	-0.8	-2.19684	0.536437	-0.018409	0	-0.018756	-0.212787	0.104382	3.998263E+9
-1015.68	-0.7	-2.195739	0.535836	-0.01853	0	-0.018626	-0.212787	0.103319	3.998264E+9
-855.25	-0.6	-2.196766	0.536132	-0.019107	0	-0.017609	-0.212787	0.103727	3.998265E+9
-694.51	-0.5	-2.19506	0.533455	-0.018409	0	-0.01895	-0.212787	0.103217	3.998266E+9
-533.51	-0.4	-2.197107	0.534056	-0.018354	0	-0.018073	-0.212787	0.103516	3.998267E+9
-372.3	-0.3	-2.1976	0.532925	-0.019177	0	-0.01873	-0.212787	0.103404	3.998268E+9
-210.93	-0.2	-2.19671	0.536937	-0.018051	0	-0.017933	-0.212787	0.104224	3.998269E+9
-49.47	-0.1	-2.197587	0.534865	-0.018079	0	-0.018182	-0.212787	0.104433	3.99827E+9
112.03	0	-2.197263	0.534683	-0.019121	0	-0.01848	-0.212787	0.103404	3.998271E+9
273.52	0.1	0.97357	-0.294859	-0.015092	0	-0.014482	-0.212787	0.103477	3.998272E+9
434.94	0.2	1.91737	-0.535969	-0.013954	0	-0.013291	-0.212787	0.104293	3.998273E+9
596.24	0.3	2.274735	-0.624703	-0.013191	0	-0.012996	-0.212787	0.104213	3.998274E+9
757.37	0.4	2.367417	-0.650977	-0.01325	0	-0.012937	-0.212787	0.104295	3.998275E+9
918.26	0.5	2.370328	-0.649697	-0.012935	0	-0.013259	-0.212787	0.103563	3.998276E+9
1078.87	0.6	2.369552	-0.648722	-0.013134	0	-0.013116	-0.212787	0.103125	3.998277E+9
1239.14	0.7	2.368587	-0.649658	-0.012586	0	-0.013485	-0.212787	0.104106	3.998278E+9
1399.02	0.8	2.370071	-0.647435	-0.012977	0	-0.013209	-0.212787	0.103482	3.998279E+9
1558.44	0.9	2.367229	-0.64738	-0.013472	0	-0.012765	-0.212787	0.104093	3.99828E+9
1717.37	1	2.37039	-0.647442	-0.013187	0	-0.013121	-0.212787	0.103707	3.998281E+9
1875.73	1.1	2.369932	-0.648959	-0.013375	0	-0.012966	-0.212787	0.103083	3.998282E+9
2033.48	1.2	2.368921	-0.648748	-0.013494	0	-0.013255	-0.212787	0.104022	3.998283E+9
2190.57	1.3	2.367732	-0.648745	-0.013506	0	-0.012784	-0.212787	0.104343	3.998284E+9
2346.93	1.4	2.367365	-0.647406	-0.013212	0	-0.012818	-0.212787	0.103271	3.998285E+9
2502.52	1.5	2.367294	-0.647981	-0.013512	0	-0.013366	-0.212787	0.10391	3.998286E+9
2657.27	1.6	2.367713	-0.648459	-0.014029	0	-0.013232	-0.212787	0.103086	3.998287E+9
2811.14	1.7	2.366745	-0.648261	-0.01416	0	-0.014084	-0.212787	0.103399	3.998288E+9
2964.07	1.8	2.364886	-0.648326	-0.013898	0	-0.014149	-0.212787	0.103955	3.998289E+9
3116	1.9	2.366397	-0.645112	-0.01329	0	-0.013174	-0.212787	0.103066	3.99829E+9
3266.89	2	2.367641	-0.647513	-0.01377	0	-0.013304	-0.212787	0.103198	3.998291E+9
3712.69	2.3	2.365897	-0.647773	-0.013614	0	-0.012628	-0.212787	0.10312	3.998292E+9
4147.09	2.6	2.368083	-0.646129	-0.013751	0	-0.012966	-0.212787	0.104204	3.998293E+9
4568.59	2.9	2.363665	-0.644882	-0.011708	0	-0.013363	-0.212787	0.104178	3.998294E+9
4975.74	3.2	2.362316	-0.644339	-0.012919	0	-0.012711	-0.212787	0.103647	3.998295E+9
5367.05	3.5	2.3605	-0.644472	-0.013568	0	-0.013103	-0.212787	0.104258	3.998296E+9
5741.05	3.8	2.360163	-0.644001	-0.013537	0	-0.01341	-0.212787	0.103254	3.998297E+9
6096.26	4.1	2.357463	-0.64214	-0.013547	0	-0.013281	-0.212787	0.104281	3.998298E+9
